#Parameters = {D=8; L=80; d_a=10; e_m=9; e_s=30; gap=1.5; m_x=30; m_y=40; m_z=100; mu_m=1; mu_s=1; s_d=2}
#"Frequency / GHz"	"S2,1 (m_z=100) [Magnitude]"
#----------------------------------------------
0.0000000000000	-79.866389449727
0.0040000001899898	-57.577893888544
0.0080000003799796	-51.579128379754
0.012000000104308	-48.065113749075
0.016000000759959	-45.573422347111
0.019999999552965	-43.643141279417
0.024000000208616	-42.068567050237
0.028000000864267	-40.739818143913
0.032000001519918	-39.591209108878
0.035999998450279	-38.580293510947
0.039999999105930	-37.678021403596
0.043999999761581	-36.863610994257
0.048000000417233	-36.121668915544
0.052000001072884	-35.440456733597
0.056000001728535	-34.810814397500
0.059999998658895	-34.225452929250
0.064000003039837	-33.678475316921
0.068000003695488	-33.165047416404
0.071999996900558	-32.681159227407
0.075999997556210	-32.223457283044
0.079999998211861	-31.789112725158
0.083999998867512	-31.375727823881
0.087999999523163	-30.981259741221
0.092000000178814	-30.603963943771
0.096000000834465	-30.242347520100
0.10000000149012	-29.895128322059
0.10400000214577	-29.561206190864
0.10800000280142	-29.239634910140
0.11200000345707	-28.929600808730
0.11599999666214	-28.630402880283
0.11999999731779	-28.341435148064
0.12399999797344	-28.062169859508
0.12800000607967	-27.792149788836
0.13199999928474	-27.530971188475
0.13600000739098	-27.278272558016
0.14000000059605	-27.033730181187
0.14399999380112	-26.797048912319
0.14800000190735	-26.567951820220
0.15199999511242	-26.346178790346
0.15600000321865	-26.131479763197
0.15999999642372	-25.923610127974
0.16400000452995	-25.722328654970
0.16799999773502	-25.527394755492
0.17200000584126	-25.338564611117
0.17599999904633	-25.155599471866
0.18000000715256	-24.978250421688
0.18400000035763	-24.806270565469
0.18799999356270	-24.639414416622
0.19200000166893	-24.477434667281
0.19599999487400	-24.320086878719
0.20000000298023	-24.167127165829
0.20399999618530	-24.018322654158
0.20800000429153	-23.873446023623
0.21199999749660	-23.732279287995
0.21600000560284	-23.594617288426
0.21999999880791	-23.460269782893
0.22400000691414	-23.329063298538
0.22800000011921	-23.200833481939
0.23199999332428	-23.075445263568
0.23600000143051	-22.952772735133
0.23999999463558	-22.832711666648
0.24400000274181	-22.715174076345
0.24799999594688	-22.600091550289
0.25200000405312	-22.487412476111
0.25600001215935	-22.377090573549
0.25999999046326	-22.269102115604
0.26399999856949	-22.163423719272
0.26800000667572	-22.060046778644
0.27200001478195	-21.958956697109
0.27599999308586	-21.860149736775
0.28000000119209	-21.763614913376
0.28400000929832	-21.669337038681
0.28799998760223	-21.577292712699
0.29199999570847	-21.487453133139
0.29600000381470	-21.399771291903
0.30000001192093	-21.314190023977
0.30399999022484	-21.230636715713
0.30799999833107	-21.149020084575
0.31200000643730	-21.069237708523
0.31600001454353	-20.991164048304
0.31999999284744	-20.914660157635
0.32400000095367	-20.839571638100
0.32800000905991	-20.765725064512
0.33199998736382	-20.692938877360
0.33599999547005	-20.621018719881
0.34000000357628	-20.549760084656
0.34400001168251	-20.478953044991
0.34799998998642	-20.408382453103
0.35199999809265	-20.337832112899
0.35600000619888	-20.267087940832
0.36000001430511	-20.195939240704
0.36399999260902	-20.124179288403
0.36800000071526	-20.051609457360
0.37200000882149	-19.978041480023
0.37599998712540	-19.903299164591
0.37999999523163	-19.827212946436
0.38400000333786	-19.749629056246
0.38800001144409	-19.670404574382
0.39199998974800	-19.589399995680
0.39599999785423	-19.506496037738
0.40000000596046	-19.421573137575
0.40400001406670	-19.334519744340
0.40799999237061	-19.245232245676
0.41200000047684	-19.153605754472
0.41600000858307	-19.059538012270
0.41999998688698	-18.962927744531
0.42399999499321	-18.863666190640
0.42800000309944	-18.761651214163
0.43200001120567	-18.656767644040
0.43599998950958	-18.548909289907
0.43999999761581	-18.437957910735
0.44400000572205	-18.323800590708
0.44800001382828	-18.206326817038
0.45199999213219	-18.085428149043
0.45600000023842	-17.961003632582
0.46000000834465	-17.832966593171
0.46399998664856	-17.701235020185
0.46799999475479	-17.565753139732
0.47200000286102	-17.426480159498
0.47600001096725	-17.283399679214
0.47999998927116	-17.136515747242
0.48399999737740	-16.985867595678
0.48800000548363	-16.831515446456
0.49200001358986	-16.673550831078
0.49599999189377	-16.512094247596
0.50000000000000	-16.347292593204
0.50400000810623	-16.179316575774
0.50800001621246	-16.008365359609
0.51200002431870	-15.834651954860
0.51599997282028	-15.658409710169
0.51999998092651	-15.479887450871
0.52399998903275	-15.299342124336
0.52799999713898	-15.117036819592
0.53200000524521	-14.933238549341
0.53600001335144	-14.748210412743
0.54000002145767	-14.562218909958
0.54400002956390	-14.375517146063
0.54799997806549	-14.188351927887
0.55199998617172	-14.000960851106
0.55599999427795	-13.813568127628
0.56000000238419	-13.626381956796
0.56400001049042	-13.439602635836
0.56800001859665	-13.253411377632
0.57200002670288	-13.067978055405
0.57599997520447	-12.883458124474
0.57999998331070	-12.699995422377
0.58399999141693	-12.517720444446
0.58799999952316	-12.336751540805
0.59200000762939	-12.157199997742
0.59600001573563	-11.979167856831
0.60000002384186	-11.802749437018
0.60399997234344	-11.628030344489
0.60799998044968	-11.455098810453
0.61199998855591	-11.284029683384
0.61599999666214	-11.114899269927
0.62000000476837	-10.947782765801
0.62400001287460	-10.782751993094
0.62800002098083	-10.619881637661
0.63200002908707	-10.459238714338
0.63599997758865	-10.300896760325
0.63999998569489	-10.144927429158
0.64399999380112	-9.9914010744543
0.64800000190735	-9.8403911195833
0.65200001001358	-9.6919646508142
0.65600001811981	-9.5461959215003
0.66000002622604	-9.4031534214397
0.66399997472763	-9.2629062778647
0.66799998283386	-9.1255203850266
0.67199999094009	-8.9910605959088
0.67599999904633	-8.8595912109507
0.68000000715256	-8.7311691784630
0.68400001525879	-8.6058531228918
0.68800002336502	-8.4836935381159
0.69199997186661	-8.3647413410899
0.69599997997284	-8.2490375721172
0.69999998807907	-8.1366237824043
0.70399999618530	-8.0275370044549
0.70800000429153	-7.9218065523416
0.71200001239777	-7.8194582595889
0.71600002050400	-7.7205139310410
0.72000002861023	-7.6249935496538
0.72399997711182	-7.5329077192581
0.72799998521805	-7.4442670568429
0.73199999332428	-7.3590775540161
0.73600000143051	-7.2773422347610
0.74000000953674	-7.1990595489823
0.74400001764297	-7.1242267209675
0.74800002574921	-7.0528383857423
0.75199997425079	-6.9848875535759
0.75599998235703	-6.9203675765006
0.75999999046326	-6.8592656461000
0.76399999856949	-6.8015729737071
0.76800000667572	-6.7472768371980
0.77200001478195	-6.6963679072365
0.77600002288818	-6.6488337881453
0.77999997138977	-6.6046610650405
0.78399997949600	-6.5638393219232
0.78799998760223	-6.5263564174610
0.79199999570847	-6.4922016876281
0.79600000381470	-6.4613613434726
0.80000001192093	-6.4338267167255
0.80400002002716	-6.4095820844294
0.80800002813339	-6.3886154468919
0.81199997663498	-6.3709131023013
0.81599998474121	-6.3564584933650
0.81999999284744	-6.3452327746856
0.82400000095367	-6.3372200175603
0.82800000905991	-6.3323948201340
0.83200001716614	-6.3307323343206
0.83600002527237	-6.3322040777281
0.83999997377396	-6.3367779243981
0.84399998188019	-6.3444168642592
0.84799998998642	-6.3550800212295
0.85199999809265	-6.3687220247620
0.85600000619888	-6.3852912106779
0.86000001430511	-6.4047336394844
0.86400002241135	-6.4269876148520
0.86799997091293	-6.4519882083514
0.87199997901917	-6.4796648378227
0.87599998712540	-6.5099447468162
0.87999999523163	-6.5427466323481
0.88400000333786	-6.5779901973004
0.88800001144409	-6.6155883453705
0.89200001955032	-6.6554549589179
0.89600002765656	-6.6974957153784
0.89999997615814	-6.7416239721576
0.90399998426437	-6.7877447012492
0.90799999237061	-6.8357675287560
0.91200000047684	-6.8856029150362
0.91600000858307	-6.9371633709268
0.92000001668930	-6.9903611758932
0.92400002479553	-7.0451179487245
0.92799997329712	-7.1013548675477
0.93199998140335	-7.1589990335962
0.93599998950958	-7.2179845686032
0.93999999761581	-7.2782493831363
0.94400000572205	-7.3397370630878
0.94800001382828	-7.4023985899218
0.95200002193451	-7.4661895783270
0.95599997043610	-7.5310714011563
0.95999997854233	-7.5970095401596
0.96399998664856	-7.6639769623546
0.96799999475479	-7.7319456597940
0.97200000286102	-7.8008947387258
0.97600001096725	-7.8708033648451
0.98000001907349	-7.9416514947541
0.98400002717972	-8.0134204343476
0.98799997568130	-8.0860889875404
0.99199998378754	-8.1596369290603
0.99599999189377	-8.2340387020662
1.0000000000000	-8.3092645936802
1.0039999485016	-8.3852836008592
1.0080000162125	-8.4620591697621
1.0119999647141	-8.5395483815105
1.0160000324249	-8.6177034670957
1.0199999809265	-8.6964716761508
1.0240000486374	-8.7757964939862
1.0279999971390	-8.8556163919711
1.0319999456406	-8.9358648154632
1.0360000133514	-9.0164753395743
1.0399999618530	-9.0973792966276
1.0440000295639	-9.1785051427274
1.0479999780655	-9.2597842081789
1.0520000457764	-9.3411506652266
1.0559999942780	-9.4225409337625
1.0599999427795	-9.5038993739269
1.0640000104904	-9.5851722808526
1.0679999589920	-9.6663173957154
1.0720000267029	-9.7473000859524
1.0759999752045	-9.8280963072317
1.0800000429153	-9.9086862063681
1.0839999914169	-9.9890687456708
1.0880000591278	-10.069244543801
1.0920000076294	-10.149227372464
1.0959999561310	-10.229042227178
1.1000000238419	-10.308715261716
1.1039999723434	-10.388284529519
1.1080000400543	-10.467790861699
1.1119999885559	-10.547275193602
1.1160000562668	-10.626782694610
1.1200000047684	-10.706358210451
1.1239999532700	-10.786037376557
1.1280000209808	-10.865857851547
1.1319999694824	-10.945845701245
1.1360000371933	-11.026023190216
1.1399999856949	-11.106396731023
1.1440000534058	-11.186966051715
1.1480000019073	-11.267719037561
1.1519999504089	-11.348630661231
1.1560000181198	-11.429666135327
1.1599999666214	-11.510775062009
1.1640000343323	-11.591901651338
1.1679999828339	-11.672980452922
1.1720000505447	-11.753938543674
1.1759999990463	-11.834696846724
1.1799999475479	-11.915174560460
1.1840000152588	-11.995293841081
1.1879999637604	-12.074975560085
1.1920000314713	-12.154149114983
1.1959999799728	-12.232751152322
1.2000000476837	-12.310728902553
1.2039999961853	-12.388042455385
1.2079999446869	-12.464666968232
1.2120000123978	-12.540592782429
1.2159999608994	-12.615825782923
1.2200000286102	-12.690393222697
1.2239999771118	-12.764332544701
1.2280000448227	-12.837701037975
1.2319999933243	-12.910567751569
1.2359999418259	-12.983012990053
1.2400000095367	-13.055125649023
1.2439999580383	-13.127001678389
1.2480000257492	-13.198738464844
1.2519999742508	-13.270431604425
1.2560000419617	-13.342173536095
1.2599999904633	-13.414047937830
1.2640000581741	-13.486125934254
1.2680000066757	-13.558466265276
1.2719999551773	-13.631108983224
1.2760000228882	-13.704076880543
1.2799999713898	-13.777371510497
1.2840000391006	-13.850974499410
1.2879999876022	-13.924844727602
1.2920000553131	-13.998922784578
1.2960000038147	-14.073128199033
1.2999999523163	-14.147367460402
1.3040000200272	-14.221528962023
1.3079999685287	-14.295492998353
1.3120000362396	-14.369134788997
1.3159999847412	-14.442325651159
1.3200000524521	-14.514941222669
1.3240000009537	-14.586864050245
1.3279999494553	-14.657988641254
1.3320000171661	-14.728227721419
1.3359999656677	-14.797512778376
1.3400000333786	-14.865799198669
1.3439999818802	-14.933071233520
1.3480000495911	-14.999338081259
1.3519999980927	-15.064635897965
1.3559999465942	-15.129033958021
1.3600000143051	-15.192624543228
1.3639999628067	-15.255519925219
1.3680000305176	-15.317857715671
1.3719999790192	-15.379786325857
1.3760000467300	-15.441467328641
1.3799999952316	-15.503066000031
1.3839999437332	-15.564746190795
1.3880000114441	-15.626662977350
1.3919999599457	-15.688961548061
1.3960000276566	-15.751766220702
1.3999999761581	-15.815179696121
1.4040000438690	-15.879276330644
1.4079999923706	-15.944101824776
1.4119999408722	-16.009665348679
1.4160000085831	-16.075943074885
1.4199999570847	-16.142877909562
1.4240000247955	-16.210375540319
1.4279999732971	-16.278313704863
1.4320000410080	-16.346539062235
1.4359999895096	-16.414874690973
1.4400000572205	-16.483125712155
1.4440000057220	-16.551085830284
1.4479999542236	-16.618543029871
1.4520000219345	-16.685288305923
1.4559999704361	-16.751124098251
1.4600000381470	-16.815870959419
1.4639999866486	-16.879377305300
1.4680000543594	-16.941520024386
1.4720000028610	-17.002218990888
1.4759999513626	-17.061434518619
1.4800000190735	-17.119174656496
1.4839999675751	-17.175489581020
1.4880000352859	-17.230479290725
1.4919999837875	-17.284285616520
1.4960000514984	-17.337088167576
1.5000000000000	-17.389098907638
1.5039999485016	-17.440557266385
1.5080000162125	-17.491717091411
1.5119999647141	-17.542841672031
1.5160000324249	-17.594191184259
1.5199999809265	-17.646014655779
1.5240000486374	-17.698544804628
1.5279999971390	-17.751978700880
1.5319999456406	-17.806481554867
1.5360000133514	-17.862173520690
1.5399999618530	-17.919124726530
1.5440000295639	-17.977354544954
1.5479999780655	-18.036822037791
1.5520000457764	-18.097433964033
1.5559999942780	-18.159039632083
1.5599999427795	-18.221436302736
1.5640000104904	-18.284371285832
1.5679999589920	-18.347553150050
1.5720000267029	-18.410654159580
1.5759999752045	-18.473325872288
1.5800000429153	-18.535207513448
1.5839999914169	-18.595937040753
1.5880000591278	-18.655169008286
1.5920000076294	-18.712580572454
1.5959999561310	-18.767893989165
1.6000000238419	-18.820878212256
1.6039999723434	-18.871365862611
1.6080000400543	-18.919256944184
1.6119999885559	-18.964527606679
1.6160000562668	-19.007228493331
1.6200000047684	-19.047486645493
1.6239999532700	-19.085501209356
1.6280000209808	-19.121531048392
1.6319999694824	-19.155890636845
1.6360000371933	-19.188937110614
1.6399999856949	-19.221053387315
1.6440000534058	-19.252633758664
1.6480000019073	-19.284069919408
1.6519999504089	-19.315734919882
1.6560000181198	-19.347969384307
1.6599999666214	-19.381061416216
1.6640000343323	-19.415243755953
1.6679999828339	-19.450676173284
1.6720000505447	-19.487437774340
1.6759999990463	-19.525520658424
1.6799999475479	-19.564828570631
1.6840000152588	-19.605167729656
1.6879999637604	-19.646256846913
1.6920000314713	-19.687723212978
1.6959999799728	-19.729116258863
1.7000000476837	-19.769914366832
1.7039999961853	-19.809539231240
1.7079999446869	-19.847374146494
1.7120000123978	-19.882783107605
1.7159999608994	-19.915132511260
1.7200000286102	-19.943818585335
1.7239999771118	-19.968286942903
1.7280000448227	-19.988064386646
1.7319999933243	-20.002775719652
1.7359999418259	-20.012166335233
1.7400000095367	-20.016118235045
1.7439999580383	-20.014658858178
1.7480000257492	-20.007971298350
1.7519999742508	-19.996383838801
1.7560000419617	-19.980370486010
1.7599999904633	-19.960533875817
1.7640000581741	-19.937593041217
1.7680000066757	-19.912358537541
1.7719999551773	-19.885712378051
1.7760000228882	-19.858585403829
1.7799999713898	-19.831938417438
1.7840000391006	-19.806733737932
1.7879999876022	-19.783927590304
1.7920000553131	-19.764444886174
1.7960000038147	-19.749170143290
1.7999999523163	-19.738939244580
1.8040000200272	-19.734528734451
1.8079999685287	-19.736653337344
1.8120000362396	-19.745955947670
1.8159999847412	-19.763019868506
1.8200000524521	-19.788352451001
1.8240000009537	-19.822399175073
1.8279999494553	-19.865538862455
1.8320000171661	-19.918087799312
1.8359999656677	-19.980304935257
1.8400000333786	-20.052386738625
1.8439999818802	-20.134480719263
1.8480000495911	-20.226681166827
1.8519999980927	-20.329036213659
1.8559999465942	-20.441551638512
1.8600000143051	-20.564182699227
1.8639999628067	-20.696856008078
1.8680000305176	-20.839454720676
1.8719999790192	-20.991830982072
1.8760000467300	-21.153804537266
1.8799999952316	-21.325168369112
1.8839999437332	-21.505689109989
1.8880000114441	-21.695107983370
1.8919999599457	-21.893153087999
1.8960000276566	-22.099531401299
1.8999999761581	-22.313939703023
1.9040000438690	-22.536065996449
1.9079999923706	-22.765594765023
1.9119999408722	-23.002213630205
1.9160000085831	-23.245611647325
1.9199999570847	-23.495490173549
1.9240000247955	-23.751568670818
1.9279999732971	-24.013583937392
1.9320000410080	-24.281305722602
1.9359999895096	-24.554526345297
1.9400000572205	-24.833084978754
1.9440000057220	-25.116854397821
1.9479999542236	-25.405754939357
1.9520000219345	-25.699760493530
1.9559999704361	-25.998886600014
1.9600000381470	-26.303212309633
1.9639999866486	-26.612862532694
1.9680000543594	-26.928022149775
1.9720000028610	-27.248922765826
1.9759999513626	-27.575854592478
1.9800000190735	-27.909150353431
1.9839999675751	-28.249187997390
1.9880000352859	-28.596384374281
1.9919999837875	-28.951189849828
1.9960000514984	-29.314079119741
2.0000000000000	-29.685550264533
2.0039999485016	-30.066104171805
2.0079998970032	-30.456245765317
2.0120000839233	-30.856461048411
2.0160000324249	-31.267214237287
2.0199999809265	-31.688923115852
2.0239999294281	-32.121945886343
2.0280001163483	-32.566555135748
2.0320000648499	-33.022916603516
2.0360000133514	-33.491057847542
2.0399999618530	-33.970833561550
2.0439999103546	-34.461883955148
2.0480000972748	-34.963594749312
2.0520000457764	-35.475040477133
2.0559999942780	-35.994931585919
2.0599999427795	-36.521555234506
2.0639998912811	-37.052710062664
2.0680000782013	-37.585650705800
2.0720000267029	-38.117032507390
2.0759999752045	-38.642870559021
2.0799999237061	-39.158524042634
2.0840001106262	-39.658688703785
2.0880000591278	-40.137441267850
2.0920000076294	-40.588307282795
2.0959999561310	-41.004359823067
2.0999999046326	-41.378370604996
2.1040000915527	-41.702988742210
2.1080000400543	-41.970986562979
2.1119999885559	-42.175552953493
2.1159999370575	-42.310695726950
2.1199998855591	-42.371699930340
2.1240000724792	-42.355640206733
2.1280000209808	-42.261854440224
2.1319999694824	-42.092262811080
2.1359999179840	-41.851423336255
2.1400001049042	-41.546285700481
2.1440000534058	-41.185662266365
2.1480000019073	-40.779525847326
2.1519999504089	-40.338274028156
2.1559998989105	-39.872071968806
2.1600000858307	-39.390378877364
2.1640000343323	-38.901621344457
2.1679999828339	-38.413058511941
2.1719999313354	-37.930757171745
2.1760001182556	-37.459651003145
2.1800000667572	-37.003640113114
2.1840000152588	-36.565715420596
2.1879999637604	-36.148064919464
2.1919999122620	-35.752188414493
2.1960000991821	-35.378976607698
2.2000000476837	-35.028768407288
2.2039999961853	-34.701405848015
2.2079999446869	-34.396253767958
2.2119998931885	-34.112203640323
2.2160000801086	-33.847678426514
2.2200000286102	-33.600617103440
2.2239999771118	-33.368456517868
2.2279999256134	-33.148125623106
2.2320001125336	-32.936056247532
2.2360000610352	-32.728219137822
2.2400000095367	-32.520202529400
2.2439999580383	-32.307341314516
2.2479999065399	-32.084913755257
2.2520000934601	-31.848394457922
2.2560000419617	-31.593735332142
2.2599999904633	-31.317672691844
2.2639999389648	-31.017987084000
2.2679998874664	-30.693700827291
2.2720000743866	-30.345146857878
2.2760000228882	-29.973920261475
2.2799999713898	-29.582704983298
2.2839999198914	-29.175021076363
2.2880001068115	-28.754929983848
2.2920000553131	-28.326732414966
2.2960000038147	-27.894723047170
2.2999999523163	-27.462974800585
2.3039999008179	-27.035206300517
2.3080000877380	-26.614693846545
2.3120000362396	-26.204232880506
2.3159999847412	-25.806132668064
2.3199999332428	-25.422236655725
2.3239998817444	-25.053945318145
2.3280000686646	-24.702252255519
2.3320000171661	-24.367773704690
2.3359999656677	-24.050777229976
2.3399999141693	-23.751209093415
2.3440001010895	-23.468699610929
2.3480000495911	-23.202578954049
2.3519999980927	-22.951883718088
2.3559999465942	-22.715349050613
2.3599998950958	-22.491414767003
