#Parameters = {L=143.5; Gap=1.5; D=8; Z0=73; cte=0.904}
#"Frequency / GHz"	"S1,1 (11) [Magnitude]"
#-----------------------------------------
0.0000000000000	0.0000000000000
0.0020000000949949	-1.5731666990872e-05
0.0040000001899898	-6.2415668176413e-05
0.0060000000521541	-0.00013903659104479
0.0080000003799796	-0.00024666340337815
0.0099999997764826	-0.00038482472590637
0.012000000104308	-0.00055358060393455
0.014000000432134	-0.00075093225833098
0.016000000759959	-0.00097851850208024
0.017999999225140	-0.0012343654662941
0.019999999552965	-0.0015216886650414
0.021999999880791	-0.0018349148528793
0.024000000208616	-0.0021772824682276
0.026000000536442	-0.0025478993814410
0.028000000864267	-0.0029443320760702
0.029999999329448	-0.0033677768182645
0.032000001519918	-0.0038153036056064
0.034000001847744	-0.0042891614577453
0.035999998450279	-0.0047874714119052
0.037999998778105	-0.0053083597203449
0.039999999105930	-0.0058525463024615
0.041999999433756	-0.0064176524446691
0.043999999761581	-0.0070044127946234
0.046000000089407	-0.0076109825370856
0.048000000417233	-0.0082360200486886
0.050000000745058	-0.0088792410196682
0.052000001072884	-0.0095403635855182
0.054000001400709	-0.010217542012540
0.056000001728535	-0.010909978943163
0.057999998331070	-0.011615300234487
0.059999998658895	-0.012334794303147
0.061999998986721	-0.013065055414518
0.064000003039837	-0.013806300454904
0.065999999642372	-0.014556184236082
0.068000003695488	-0.015315947667235
0.070000000298023	-0.016082179209271
0.071999996900558	-0.016854048436417
0.074000000953674	-0.017630222399272
0.075999997556210	-0.018411375875618
0.078000001609325	-0.019194633698778
0.079999998211861	-0.019978551795785
0.082000002264977	-0.020762314371507
0.083999998867512	-0.021545544885891
0.086000002920628	-0.022325768828878
0.087999999523163	-0.023102622487085
0.090000003576279	-0.023873621133990
0.092000000178814	-0.024639362113923
0.093999996781349	-0.025397913222699
0.096000000834465	-0.026147765635734
0.097999997437000	-0.026888411134839
0.10000000149012	-0.027618393924109
0.10199999809265	-0.028335113446119
0.10400000214577	-0.029040145109086
0.10599999874830	-0.029730906507415
0.10800000280142	-0.030406187715806
0.10999999940395	-0.031066130125085
0.11200000345707	-0.031707918668904
0.11400000005960	-0.032333093006871
0.11599999666214	-0.032937908231531
0.11800000071526	-0.033523176162490
0.11999999731779	-0.034087282134566
0.12200000137091	-0.034630028001911
0.12399999797344	-0.035150664723281
0.12600000202656	-0.035647426767676
0.12800000607967	-0.036120068871574
0.12999999523163	-0.036568305685747
0.13199999928474	-0.036991372243497
0.13400000333786	-0.037388391196024
0.13600000739098	-0.037759076311141
0.13799999654293	-0.038102489825026
0.14000000059605	-0.038418286116947
0.14200000464916	-0.038707148644428
0.14399999380112	-0.038966530415733
0.14599999785423	-0.039198552996941
0.14800000190735	-0.039401246382310
0.15000000596046	-0.039575140547013
0.15199999511242	-0.039719728424960
0.15399999916553	-0.039836035439359
0.15600000321865	-0.039921457309033
0.15800000727177	-0.039978502761424
0.15999999642372	-0.040006644655930
0.16200000047684	-0.040004208297104
0.16400000452995	-0.039975216410332
0.16599999368191	-0.039915422027940
0.16799999773502	-0.039827825114714
0.17000000178814	-0.039712279330910
0.17200000584126	-0.039569060764220
0.17399999499321	-0.039398045203004
0.17599999904633	-0.039200635735925
0.17800000309944	-0.038977013377931
0.18000000715256	-0.038727564361118
0.18199999630451	-0.038453664772248
0.18400000035763	-0.038155499030259
0.18600000441074	-0.037833398704268
0.18799999356270	-0.037488544742609
0.18999999761581	-0.037121869913204
0.19200000166893	-0.036733372848449
0.19400000572205	-0.036326234468403
0.19599999487400	-0.035900412401620
0.19799999892712	-0.035455199337354
0.20000000298023	-0.034993515412632
0.20200000703335	-0.034515752844783
0.20399999618530	-0.034023168078120
0.20600000023842	-0.033518107255779
0.20800000429153	-0.033000159596619
0.20999999344349	-0.032471282142606
0.21199999749660	-0.031932454917649
0.21400000154972	-0.031385747413707
0.21600000560284	-0.030832765552447
0.21799999475479	-0.030272656840722
0.21999999880791	-0.029709002332448
0.22200000286102	-0.029143453690622
0.22400000691414	-0.028576103228631
0.22599999606609	-0.028008342026559
0.22800000011921	-0.027443435826477
0.23000000417233	-0.026881611038303
0.23199999332428	-0.026323725900907
0.23399999737740	-0.025773599408392
0.23600000143051	-0.025230671579415
0.23800000548363	-0.024697854830021
0.23999999463558	-0.024175722920230
0.24199999868870	-0.023665452546426
0.24400000274181	-0.023170968907899
0.24600000679493	-0.022691709335123
0.24799999594688	-0.022230606058237
0.25000000000000	-0.021787940096533
0.25200000405312	-0.021366150386498
0.25400000810623	-0.020966509908460
0.25600001215935	-0.020590828884340
0.25799998641014	-0.020240875052879
0.25999999046326	-0.019918267068038
0.26199999451637	-0.019623215627051
0.26399999856949	-0.019358129703970
0.26600000262260	-0.019124366350250
0.26800000667572	-0.018924441948340
0.27000001072884	-0.018758268839941
0.27200001478195	-0.018627993031792
0.27399998903275	-0.018534691221336
0.27599999308586	-0.018480047654952
0.27799999713898	-0.018466101754167
0.28000000119209	-0.018493496988812
0.28200000524521	-0.018562107907395
0.28400000929832	-0.018675722730938
0.28600001335144	-0.018833225509874
0.28799998760223	-0.019038207137494
0.28999999165535	-0.019289840204283
0.29199999570847	-0.019589787939802
0.29399999976158	-0.019939617418616
0.29600000381470	-0.020338804111528
0.29800000786781	-0.020789848148896
0.30000001192093	-0.021293442096158
0.30199998617172	-0.021850012168330
0.30399999022484	-0.022460250914110
0.30599999427795	-0.023125445985008
0.30799999833107	-0.023847137722190
0.31000000238419	-0.024624194592674
0.31200000643730	-0.025458880152749
0.31400001049042	-0.026351377891708
0.31600001454353	-0.027300267826371
0.31799998879433	-0.028307862339155
0.31999999284744	-0.029375202104712
0.32199999690056	-0.030501728956455
0.32400000095367	-0.031688070105440
0.32600000500679	-0.032934728822190
0.32800000905991	-0.034240287066480
0.33000001311302	-0.035607019529877
0.33199998736382	-0.037034463820737
0.33399999141693	-0.038521475719912
0.33599999547005	-0.040070245527733
0.33799999952316	-0.041678494068996
0.34000000357628	-0.043348284621912
0.34200000762939	-0.045077453528707
0.34400001168251	-0.046867460268982
0.34599998593330	-0.048716937212893
0.34799998998642	-0.050626726149634
0.34999999403954	-0.052596202380916
0.35199999809265	-0.054624428371695
0.35400000214577	-0.056711454509918
0.35600000619888	-0.058856412592583
0.35800001025200	-0.061059059515910
0.36000001430511	-0.063320242815650
0.36199998855591	-0.065637604037599
0.36399999260902	-0.068011293602400
0.36599999666214	-0.070440413156859
0.36800000071526	-0.072924025049077
0.37000000476837	-0.075462682512661
0.37200000882149	-0.078054962494352
0.37400001287460	-0.080698006157702
0.37599998712540	-0.083395358230257
0.37799999117851	-0.086144286454967
0.37999999523163	-0.088941353323297
0.38199999928474	-0.091789531355224
0.38400000333786	-0.094686688469028
0.38600000739098	-0.097631283280226
0.38800001144409	-0.10062321647940
0.38999998569489	-0.10366124436032
0.39199998974800	-0.10674465484141
0.39399999380112	-0.10987263483572
0.39599999785423	-0.11304477952197
0.39800000190735	-0.11625792665503
0.40000000596046	-0.11951538313682
0.40200001001358	-0.12281151806687
0.40400001406670	-0.12614905992473
0.40599998831749	-0.12952523300382
0.40799999237061	-0.13294095573739
0.40999999642372	-0.13639362219830
0.41200000047684	-0.13988253867576
0.41400000452995	-0.14340887915361
0.41600000858307	-0.14696958187921
0.41800001263618	-0.15056505345881
0.41999998688698	-0.15419481206514
0.42199999094009	-0.15785733607583
0.42399999499321	-0.16155313978732
0.42599999904633	-0.16528150354801
0.42800000309944	-0.16904139417727
0.43000000715256	-0.17283122456620
0.43200001120567	-0.17665377076807
0.43399998545647	-0.18050591892993
0.43599998950958	-0.18438846526663
0.43799999356270	-0.18830163566833
0.43999999761581	-0.19224316438291
0.44200000166893	-0.19621567439899
0.44400000572205	-0.20021683345982
0.44600000977516	-0.20424919276729
0.44800001382828	-0.20831129598151
0.44999998807907	-0.21240314753464
0.45199999213219	-0.21652606414829
0.45399999618530	-0.22067874505905
0.45600000023842	-0.22486335933481
0.45800000429153	-0.22907948061017
0.46000000834465	-0.23332801363768
0.46200001239777	-0.23760989763808
0.46399998664856	-0.24192610816286
0.46599999070168	-0.24627654936403
0.46799999475479	-0.25066297586290
0.46999999880791	-0.25508713913191
0.47200000286102	-0.25954882977349
0.47400000691414	-0.26405066659384
0.47600001096725	-0.26859305229870
0.47799998521805	-0.27317880984326
0.47999998927116	-0.27780830232932
0.48199999332428	-0.28248418946847
0.48399999737740	-0.28720818294370
0.48600000143051	-0.29198177391299
0.48800000548363	-0.29680664348587
0.49000000953674	-0.30168672423927
0.49200001358986	-0.30662288109347
0.49399998784065	-0.31161820240849
0.49599999189377	-0.31667541864167
0.49799999594688	-0.32179736866788
0.50000000000000	-0.32698598335867
0.50199997425079	-0.33224534933064
0.50400000810623	-0.33757715072272
0.50599998235703	-0.34298534048446
0.50800001621246	-0.34847342317996
0.50999999046326	-0.35404520566060
0.51200002431870	-0.35970339143851
0.51399999856949	-0.36545150188728
0.51599997282028	-0.37129447557590
0.51800000667572	-0.37723473105540
0.51999998092651	-0.38327731030607
0.52200001478195	-0.38942597252605
0.52399998903275	-0.39568548416163
0.52600002288818	-0.40205909168511
0.52799999713898	-0.40855297249988
0.52999997138977	-0.41517057826821
0.53200000524521	-0.42191718232452
0.53399997949600	-0.42879710598291
0.53600001335144	-0.43581523828037
0.53799998760223	-0.44297659398558
0.54000002145767	-0.45028660584035
0.54199999570847	-0.45775124729350
0.54400002956390	-0.46537541354761
0.54600000381470	-0.47316349680303
0.54799997806549	-0.48112228258083
0.55000001192093	-0.48925856188444
0.55199998617172	-0.49757451938947
0.55400002002716	-0.50607927511848
0.55599999427795	-0.51477753019028
0.55800002813339	-0.52367580383162
0.56000000238419	-0.53278067828892
0.56199997663498	-0.54209753832841
0.56400001049042	-0.55163415254449
0.56599998474121	-0.56139340452598
0.56800001859665	-0.57138490325893
0.56999999284744	-0.58161552152237
0.57200002670288	-0.59209081368983
0.57400000095367	-0.60281776574702
0.57599997520447	-0.61380256650959
0.57800000905991	-0.62505401555420
0.57999998331070	-0.63657760971787
0.58200001716614	-0.64837956913425
0.58399999141693	-0.66047132581383
0.58600002527237	-0.67285454241063
0.58799999952316	-0.68553985649498
0.58999997377396	-0.69853449441456
0.59200000762939	-0.71184514281092
0.59399998188019	-0.72547849876012
0.59600001573563	-0.73944340490184
0.59799998998642	-0.75374832481923
0.60000002384186	-0.76839994791694
0.60199999809265	-0.78340470331051
0.60399997234344	-0.79877257514195
0.60600000619888	-0.81451070255403
0.60799998044968	-0.83062742911631
0.61000001430511	-0.84712926298967
0.61199998855591	-0.86402586582386
0.61400002241135	-0.88132517130595
0.61599999666214	-0.89903491058986
0.61799997091293	-0.91716334464474
0.62000000476837	-0.93571910101579
0.62199997901917	-0.95471047027407
0.62400001287460	-0.97414569685071
0.62599998712540	-0.99403367984602
0.62800002098083	-1.0143829231990
0.62999999523163	-1.0352002061488
0.63200002908707	-1.0564973845385
0.63400000333786	-1.0782812760376
0.63599997758865	-1.1005600460028
0.63800001144409	-1.1233442081163
0.63999998569489	-1.1466427879085
0.64200001955032	-1.1704616065318
0.64399999380112	-1.1948133280476
0.64600002765656	-1.2197048146720
0.64800000190735	-1.2451480163141
0.64999997615814	-1.2711486958310
0.65200001001358	-1.2977169722559
0.65399998426437	-1.3248628788896
0.65600001811981	-1.3525965436813
0.65799999237061	-1.3809269787862
0.66000002622604	-1.4098623105125
0.66200000047684	-1.4394138309421
0.66399997472763	-1.4695906928310
0.66600000858307	-1.5004040921243
0.66799998283386	-1.5318618199301
0.67000001668930	-1.5639736931743
0.67199999094009	-1.5967519184729
0.67400002479553	-1.6302049542692
0.67599999904633	-1.6643442003236
0.67799997329712	-1.6991787053454
0.68000000715256	-1.7347201197992
0.68199998140335	-1.7709785935698
0.68400001525879	-1.8079649278638
0.68599998950958	-1.8456889760009
0.68800002336502	-1.8841637813031
0.68999999761581	-1.9233980713099
0.69199997186661	-1.9634050150409
0.69400000572205	-2.0041947347522
0.69599997997284	-2.0457795327304
0.69800001382828	-2.0881699448123
0.69999998807907	-2.1313781730746
0.70200002193451	-2.1754154445241
0.70399999618530	-2.2202954007255
0.70599997043610	-2.2660292262128
0.70800000429153	-2.3126308349915
0.70999997854233	-2.3601099646625
0.71200001239777	-2.4084829071998
0.71399998664856	-2.4577601364261
0.71600002050400	-2.5079537928182
0.71799999475479	-2.5590815940579
0.72000002861023	-2.6111535062581
0.72200000286102	-2.6641852445271
0.72399997711182	-2.7181908886709
0.72600001096725	-2.7731832747453
0.72799998521805	-2.8291787615261
0.73000001907349	-2.8861915205894
0.73199999332428	-2.9442366609405
0.73400002717972	-3.0033292882133
0.73600000143051	-3.0634872401955
0.73799997568130	-3.1247245924623
0.74000000953674	-3.1870582999337
0.74199998378754	-3.2505071236081
0.74400001764297	-3.3150855277365
0.74599999189377	-3.3808115328247
0.74800002574921	-3.4477041713725
0.75000000000000	-3.5157829312566
0.75199997425079	-3.5850638155103
0.75400000810623	-3.6555679745834
0.75599998235703	-3.7273152626547
0.75800001621246	-3.8003237593000
0.75999999046326	-3.8746183407060
0.76200002431870	-3.9502170309125
0.76399999856949	-4.0271425971524
0.76599997282028	-4.1054162221644
0.76800000667572	-4.1850626219917
0.76999998092651	-4.2661067189471
0.77200001478195	-4.3485705198702
0.77399998903275	-4.4324791506888
0.77600002288818	-4.5178586978065
0.77799999713898	-4.6047362621424
0.77999997138977	-4.6931403956780
0.78200000524521	-4.7830964189093
0.78399997949600	-4.8746355446871
0.78600001335144	-4.9677850587880
0.78799998760223	-5.0625778495522
0.79000002145767	-5.1590485298002
0.79199999570847	-5.2572228567844
0.79400002956390	-5.3571417196764
0.79600000381470	-5.4588367608825
0.79799997806549	-5.5623451710531
0.80000001192093	-5.6677046736402
0.80199998617172	-5.7749518694970
0.80400002002716	-5.8841306589171
0.80599999427795	-5.9952829438443
0.80800002813339	-6.1084486964297
0.81000000238419	-6.2236751761766
0.81199997663498	-6.3410076625234
0.81400001049042	-6.4604957390932
0.81599998474121	-6.5821885561815
0.81800001859665	-6.7061394867105
0.81999999284744	-6.8324019597879
0.82200002670288	-6.9610332791699
0.82400000095367	-7.0920914052205
0.82599997520447	-7.2256386693485
0.82800000905991	-7.3617365941845
0.82999998331070	-7.5004535177238
0.83200001716614	-7.6418591505740
0.83399999141693	-7.7860258169167
0.83600002527237	-7.9330278010248
0.83799999952316	-8.0829443293267
0.83999997377396	-8.2358584938875
0.84200000762939	-8.3918556613492
0.84399998188019	-8.5510285164889
0.84600001573563	-8.7134683440674
0.84799998998642	-8.8792763205848
0.85000002384186	-9.0485538924493
0.85199999809265	-9.2214128134768
0.85399997234344	-9.3979631886114
0.85600000619888	-9.5783242621290
0.85799998044968	-9.7626256434857
0.86000001430511	-9.9509942467899
0.86199998855591	-10.143568712187
0.86400002241135	-10.340495386065
0.86599999666214	-10.541925704505
0.86799997091293	-10.748014944701
0.87000000476837	-10.958936243658
0.87199997901917	-11.174861369878
0.87400001287460	-11.395974229875
0.87599998712540	-11.622467650254
0.87800002098083	-11.854543169644
0.87999999523163	-12.092410833831
0.88200002908707	-12.336290240963
0.88400000333786	-12.586411020730
0.88599997758865	-12.843006963581
0.88800001144409	-13.106324114396
0.88999998569489	-13.376613794015
0.89200001955032	-13.654130450897
0.89399999380112	-13.939133604751
0.89600002765656	-14.231882982419
0.89800000190735	-14.532630912954
0.89999997615814	-14.841622915395
0.90200001001358	-15.159080800303
0.90399998426437	-15.485202186159
0.90600001811981	-15.820140645526
0.90799999237061	-16.163992041046
0.91000002622604	-16.516765514995
0.91200000047684	-16.878358804745
0.91399997472763	-17.248514701148
0.91600000858307	-17.626777847454
0.91799998283386	-18.012427622730
0.92000001668930	-18.404399780296
0.92199999094009	-18.801193971562
0.92400002479553	-19.200758056862
0.92599999904633	-19.600359787416
0.92799997329712	-19.996451790548
0.93000000715256	-20.384527610497
0.93199998140335	-20.759027793945
0.93400001525879	-21.113292400935
0.93599998950958	-21.439641998202
0.93800002336502	-21.729637178912
0.93999999761581	-21.974535934577
0.94199997186661	-22.166003727033
0.94400000572205	-22.296962470794
0.94599997997284	-22.362461582348
0.94800001382828	-22.360364871984
0.94999998807907	-22.291671995615
0.95200002193451	-22.160364930842
0.95399999618530	-21.972832409518
0.95599997043610	-21.737053900657
0.95800000429153	-21.461708620317
0.95999997854233	-21.155412339887
0.96200001239777	-20.826161928150
0.96399998664856	-20.481001515222
0.96600002050400	-20.125894838590
0.96799999475479	-19.765718883714
0.97000002861023	-19.404355157162
0.97200000286102	-19.044818636745
0.97399997711182	-18.689387222758
0.97600001096725	-18.339749037765
0.97799998521805	-17.997112352522
0.98000001907349	-17.662311342006
0.98199999332428	-17.335889420970
0.98400002717972	-17.018163804445
0.98600000143051	-16.709288811970
0.98799997568130	-16.409285918307
0.99000000953674	-16.118086962635
0.99199998378754	-15.835554407513
0.99400001764297	-15.561503615290
0.99599999189377	-15.295713221709
0.99800002574921	-15.037944495337
1.0000000000000	-14.787944375330
1.0019999742508	-14.545451503098
1.0039999485016	-14.310203325601
1.0060000419617	-14.081938273749
1.0080000162125	-13.860402941588
1.0099999904633	-13.645345361154
1.0119999647141	-13.436521104819
1.0140000581741	-13.233699450286
1.0160000324249	-13.036651089219
1.0180000066757	-12.845159983527
1.0199999809265	-12.659018537345
1.0219999551773	-12.478025968929
1.0240000486374	-12.301993709157
1.0260000228882	-12.130739082595
1.0279999971390	-11.964087343958
1.0299999713898	-11.801874920090
1.0319999456406	-11.643940392816
1.0340000391006	-11.490135317327
1.0360000133514	-11.340314813531
1.0379999876022	-11.194341248000
1.0399999618530	-11.052084775088
1.0420000553131	-10.913417443546
1.0440000295639	-10.778220342125
1.0460000038147	-10.646380391891
1.0479999780655	-10.517786552254
1.0499999523163	-10.392334031737
1.0520000457764	-10.269923897279
1.0540000200272	-10.150457772435
1.0559999942780	-10.033846007467
1.0579999685287	-9.9199990721495
1.0599999427795	-9.8088331493851
1.0620000362396	-9.7002650747599
1.0640000104904	-9.5942177393105
1.0659999847412	-9.4906166842825
1.0679999589920	-9.3893899012641
1.0700000524521	-9.2904662201573
1.0720000267029	-9.1937811901696
1.0740000009537	-9.0992671215541
1.0759999752045	-9.0068641669644
1.0779999494553	-8.9165105618828
1.0800000429153	-8.8281526532261
1.0820000171661	-8.7417296163225
1.0839999914169	-8.6571878072563
1.0859999656677	-8.5744783485205
1.0880000591278	-8.4935485628882
1.0900000333786	-8.4143475812380
1.0920000076294	-8.3368310207921
1.0939999818802	-8.2609518614608
1.0959999561310	-8.1866646630325
1.0980000495911	-8.1139266091966
1.1000000238419	-8.0426968305735
1.1019999980927	-7.9729317924191
1.1039999723434	-7.9045948647561
1.1059999465942	-7.8376465544903
1.1080000400543	-7.7720483838832
1.1100000143051	-7.7077640914688
1.1119999885559	-7.6447594835013
1.1139999628067	-7.5829986138916
1.1160000562668	-7.5224480601342
1.1180000305176	-7.4630745615245
1.1200000047684	-7.4048484390518
1.1219999790192	-7.3477356545529
1.1239999532700	-7.2917080736379
1.1260000467300	-7.2367351525731
1.1280000209808	-7.1827859135220
1.1299999952316	-7.1298352706454
1.1319999694824	-7.0778529638194
1.1339999437332	-7.0268149737734
