#Parameters = {L=155.5; Gap=1.5; D=8; Z0=73; cte=0.904}
#"Frequency / GHz"	"S1,1 (13) [Magnitude]"
#-----------------------------------------
0.0000000000000	0.0000000000000
0.0020000000949949	-2.2134073391933e-05
0.0040000001899898	-8.8547541343672e-05
0.0060000000521541	-0.00019720327216514
0.0080000003799796	-0.00035178141627939
0.0099999997764826	-0.00054770058981398
0.012000000104308	-0.00078713226662628
0.014000000432134	-0.0010696790346041
0.016000000759959	-0.0013923789004421
0.017999999225140	-0.0017585006935288
0.019999999552965	-0.0021640850355138
0.021999999880791	-0.0026103695497277
0.024000000208616	-0.0030965433910602
0.026000000536442	-0.0036202498946711
0.028000000864267	-0.0041822689450963
0.029999999329448	-0.0047802797503735
0.032000001519918	-0.0054140497150691
0.034000001847744	-0.0060812901541503
0.035999998450279	-0.0067838731221074
0.037999998778105	-0.0075164225369591
0.039999999105930	-0.0082808299993866
0.041999999433756	-0.0090738065019333
0.043999999761581	-0.0098951886638553
0.046000000089407	-0.010742757485516
0.048000000417233	-0.011615310783734
0.050000000745058	-0.012510625603798
0.052000001072884	-0.013429078148460
0.054000001400709	-0.014367409324395
0.056000001728535	-0.015322872952595
0.057999998331070	-0.016296890399124
0.059999998658895	-0.017285670992517
0.061999998986721	-0.018287493431798
0.064000003039837	-0.019300644986433
0.065999999642372	-0.020323396579180
0.068000003695488	-0.021355582182077
0.070000000298023	-0.022391277229027
0.071999996900558	-0.023433934358142
0.074000000953674	-0.024477581158832
0.075999997556210	-0.025522046237004
0.078000001609325	-0.026564959506210
0.079999998211861	-0.027605027152986
0.082000002264977	-0.028639895137651
0.083999998867512	-0.029667668903957
0.086000002920628	-0.030688038738733
0.087999999523163	-0.031696514992910
0.090000003576279	-0.032692674852760
0.092000000178814	-0.033675122035896
0.093999996781349	-0.034641808187340
0.096000000834465	-0.035590283528758
0.097999997437000	-0.036519994874508
0.10000000149012	-0.037428864396806
0.10199999809265	-0.038314877668278
0.10400000214577	-0.039177327953916
0.10599999874830	-0.040014125537203
0.10800000280142	-0.040823147068055
0.10999999940395	-0.041604071855914
0.11200000345707	-0.042354756028503
0.11400000005960	-0.043074894697070
0.11599999666214	-0.043762239935772
0.11800000071526	-0.044415483403672
0.11999999731779	-0.045034178653121
0.12200000137091	-0.045617012533246
0.12399999797344	-0.046163068255762
0.12600000202656	-0.046671427825877
0.12800000607967	-0.047141025034378
0.12999999523163	-0.047571449381140
0.13199999928474	-0.047961068495850
0.13400000333786	-0.048310416203539
0.13600000739098	-0.048619385552971
0.13799999654293	-0.048885800836332
0.14000000059605	-0.049111052548165
0.14200000464916	-0.049293389934868
0.14399999380112	-0.049432726860246
0.14599999785423	-0.049530789957960
0.14800000190735	-0.049584723802775
0.15000000596046	-0.049597405224430
0.15199999511242	-0.049567445302913
0.15399999916553	-0.049493932447824
0.15600000321865	-0.049380217366472
0.15800000727177	-0.049224314285021
0.15999999642372	-0.049027780779768
0.16200000047684	-0.048791375817103
0.16400000452995	-0.048515046434003
0.16599999368191	-0.048199874022135
0.16799999773502	-0.047846372733538
0.17000000178814	-0.047455693327303
0.17200000584126	-0.047029670390707
0.17399999499321	-0.046567982700611
0.17599999904633	-0.046073139004596
0.17800000309944	-0.045545468312422
0.18000000715256	-0.044986546021957
0.18199999630451	-0.044397991943433
0.18400000035763	-0.043782121558607
0.18600000441074	-0.043138281037700
0.18799999356270	-0.042469723365719
0.18999999761581	-0.041776819329111
0.19200000166893	-0.041063478543748
0.19400000572205	-0.040330159238257
0.19599999487400	-0.039578172752777
0.19799999892712	-0.038810547842887
0.20000000298023	-0.038028128429870
0.20200000703335	-0.037233847721778
0.20399999618530	-0.036430687243812
0.20600000023842	-0.035617718965524
0.20800000429153	-0.034800022551432
0.20999999344349	-0.033977544802164
0.21199999749660	-0.033154572314642
0.21400000154972	-0.032332251386524
0.21600000560284	-0.031512944775941
0.21799999475479	-0.030698998604027
0.21999999880791	-0.029892582463404
0.22200000286102	-0.029095446925169
0.22400000691414	-0.028311207488882
0.22599999606609	-0.027541272066458
0.22800000011921	-0.026788827303286
0.23000000417233	-0.026054867990840
0.23199999332428	-0.025342960821307
0.23399999737740	-0.024654755842794
0.23600000143051	-0.023993582911812
0.23800000548363	-0.023360515485899
0.23999999463558	-0.022756933615117
0.24199999868870	-0.022187400820645
0.24400000274181	-0.021653570353757
0.24600000679493	-0.021156334319632
0.24799999594688	-0.020699762476968
0.25000000000000	-0.020284658826406
0.25200000405312	-0.019912986572528
0.25400000810623	-0.019588732838715
0.25600001215935	-0.019310714124930
0.25799998641014	-0.019083313824538
0.25999999046326	-0.018908356980565
0.26199999451637	-0.018787361564937
0.26399999856949	-0.018720926367322
0.26600000262260	-0.018712363658172
0.26800000667572	-0.018763534261431
0.27000001072884	-0.018875093680602
0.27200001478195	-0.019048668771657
0.27399998903275	-0.019286956993807
0.27599999308586	-0.019590309503048
0.27799999713898	-0.019960452421948
0.28000000119209	-0.020397017662421
0.28200000524521	-0.020905287784741
0.28400000929832	-0.021482886303100
0.28600001335144	-0.022131366968776
0.28799998760223	-0.022853662225834
0.28999999165535	-0.023647869783674
0.29199999570847	-0.024517574686284
0.29399999976158	-0.025461846213628
0.29600000381470	-0.026481648529997
0.29800000786781	-0.027578086388679
0.30000001192093	-0.028751365627778
0.30199998617172	-0.030002756972240
0.30399999022484	-0.031330330611679
0.30599999427795	-0.032735995282708
0.30799999833107	-0.034220051910248
0.31000000238419	-0.035783213045866
0.31200000643730	-0.037422838701186
0.31400001049042	-0.039142092268710
0.31600001454353	-0.040938879920564
0.31799998879433	-0.042814216268146
0.31999999284744	-0.044766807921493
0.32199999690056	-0.046796268609943
0.32400000095367	-0.048902647135305
0.32600000500679	-0.051085236954282
0.32800000905991	-0.053342582995949
0.33000001311302	-0.055676539316681
0.33199998736382	-0.058084724155100
0.33399999141693	-0.060565419305188
0.33599999547005	-0.063119382820994
0.33799999952316	-0.065745201890807
0.34000000357628	-0.068441123015238
0.34200000762939	-0.071206926259687
0.34400001168251	-0.074042690068762
0.34599998593330	-0.076943549065368
0.34799998998642	-0.079912651172803
0.34999999403954	-0.082945851516214
0.35199999809265	-0.086043280721245
0.35400000214577	-0.089202807000163
0.35600000619888	-0.092423025909282
0.35800001025200	-0.095704595923605
0.36000001430511	-0.099043904036028
0.36199998855591	-0.10244001656204
0.36399999260902	-0.10589166840407
0.36599999666214	-0.10939788908056
0.36800000071526	-0.11295626417933
0.37000000476837	-0.11656551369642
0.37200000882149	-0.12022578578070
0.37400001287460	-0.12393276833667
0.37599998712540	-0.12768702405166
0.37799999117851	-0.13148676247698
0.37999999523163	-0.13533132520422
0.38199999928474	-0.13921765499684
0.38400000333786	-0.14314603172546
0.38600000739098	-0.14711445100424
0.38800001144409	-0.15112046705130
0.38999998569489	-0.15516499858803
0.39199998974800	-0.15924438731532
0.39399999380112	-0.16336010545697
0.39599999785423	-0.16750938462328
0.39800000190735	-0.17169151903182
0.40000000596046	-0.17590648954502
0.40200001001358	-0.18015214553521
0.40400001406670	-0.18442704854562
0.40599998831749	-0.18873188392473
0.40799999237061	-0.19306653028725
0.40999999642372	-0.19743048930322
0.41200000047684	-0.20182164114545
0.41400000452995	-0.20623989347948
0.41600000858307	-0.21068607081660
0.41800001263618	-0.21515977286565
0.41999998688698	-0.21966196396816
0.42199999094009	-0.22419113005519
0.42399999499321	-0.22874786100889
0.42599999904633	-0.23333277976648
0.42800000309944	-0.23794730914924
0.43000000715256	-0.24259142215481
0.43200001120567	-0.24726413525844
0.43399998545647	-0.25196870980197
0.43599998950958	-0.25670555128492
0.43799999356270	-0.26147603498667
0.43999999761581	-0.26628221362271
0.44200000166893	-0.27112397640918
0.44400000572205	-0.27600462237961
0.44600000977516	-0.28092574053266
0.44800001382828	-0.28588850338605
0.44999998807907	-0.29089625161286
0.45199999213219	-0.29594923100856
0.45399999618530	-0.30105341150392
0.45600000023842	-0.30620858979747
0.45800000429153	-0.31141893835469
0.46000000834465	-0.31668757160547
0.46200001239777	-0.32201666055737
0.46399998664856	-0.32741168365483
0.46599999070168	-0.33287521565039
0.46799999475479	-0.33841023735166
0.46999999880791	-0.34402164526536
0.47200000286102	-0.34971301261321
0.47400000691414	-0.35548935282410
0.47600001096725	-0.36135478690513
0.47799998521805	-0.36731350924416
0.47999998927116	-0.37337169567973
0.48199999332428	-0.37953334356575
0.48399999737740	-0.38580412491356
0.48600000143051	-0.39218946531489
0.48800000548363	-0.39869440412443
0.49000000953674	-0.40532532554279
0.49200001358986	-0.41208707529292
0.49399998784065	-0.41898740889465
0.49599999189377	-0.42603075257495
0.49799999594688	-0.43322440947374
0.50000000000000	-0.44057568262231
0.50199997425079	-0.44808954262087
0.50400000810623	-0.45577491493698
0.50599998235703	-0.46363679039769
0.50800001621246	-0.47168397589378
0.50999999046326	-0.47992283548229
0.51200002431870	-0.48836156834095
0.51399999856949	-0.49700702424377
0.51599997282028	-0.50586766621991
0.51800000667572	-0.51495037013300
0.51999998092651	-0.52426444397177
0.52200001478195	-0.53381719789427
0.52399998903275	-0.54361787402640
0.52600002288818	-0.55367408328951
0.52799999713898	-0.56399495908054
0.52999997138977	-0.57458810743139
0.53200000524521	-0.58546306004867
0.53399997949600	-0.59662907360804
0.53600001335144	-0.60809484257569
0.53799998760223	-0.61986903341237
0.54000002145767	-0.63196168778044
0.54199999570847	-0.64438125110093
0.54400002956390	-0.65713799990402
0.54600000381470	-0.67024093289054
0.54799997806549	-0.68370079315575
0.55000001192093	-0.69752608107094
0.55199998617172	-0.71172642381064
0.55400002002716	-0.72631327733663
0.55599999427795	-0.74129499382785
0.55800002813339	-0.75668226506509
0.56000000238419	-0.77248560565749
0.56199997663498	-0.78871651191063
0.56400001049042	-0.80538318853112
0.56599998474121	-0.82249559229506
0.56800001859665	-0.84006568691806
0.56999999284744	-0.85810432465668
0.57200002670288	-0.87662223827780
0.57400000095367	-0.89562896505150
0.57599997520447	-0.91513523311056
0.57800000905991	-0.93515324346303
0.57999998331070	-0.95569361096561
0.58200001716614	-0.97676751664044
0.58399999141693	-0.99838543979451
0.58600002527237	-1.0205580204094
0.58799999952316	-1.0432983962143
0.58999997377396	-1.0666158434973
0.59200000762939	-1.0905232174477
0.59399998188019	-1.1150329479891
0.59600001573563	-1.1401537687581
0.59799998998642	-1.1658993996569
0.60000002384186	-1.1922798111300
0.60199999809265	-1.2193100857258
0.60399997234344	-1.2469994035405
0.60600000619888	-1.2753608114575
0.60799998044968	-1.3044056111630
0.61000001430511	-1.3341468887699
0.61199998855591	-1.3645974845084
0.61400002241135	-1.3957675274327
0.61599999666214	-1.4276719875302
0.61799997091293	-1.4603212475836
0.62000000476837	-1.4937307649147
0.62199997901917	-1.5279105372101
0.62400001287460	-1.5628753551955
0.62599998712540	-1.5986384411428
0.62800002098083	-1.6352122519376
0.62999999523163	-1.6726095118525
0.63200002908707	-1.7108443860727
0.63400000333786	-1.7499307387680
0.63599997758865	-1.7898826250626
0.63800001144409	-1.8307131605368
0.63999998569489	-1.8724385418849
0.64200001955032	-1.9150698918448
0.64399999380112	-1.9586236313252
0.64600002765656	-2.0031140254372
0.64800000190735	-2.0485578575444
0.64999997615814	-2.0949665702435
0.65200001001358	-2.1423577016110
0.65399998426437	-2.1907469210973
0.65600001811981	-2.2401484637485
0.65799999237061	-2.2905817670839
0.66000002622604	-2.3420586093364
0.66200000047684	-2.3945994162667
0.66399997472763	-2.4482187304966
0.66600000858307	-2.5029336518345
0.66799998283386	-2.5587632872685
0.67000001668930	-2.6157244396228
0.67199999094009	-2.6738356716466
0.67400002479553	-2.7331134130346
0.67599999904633	-2.7935798909428
0.67799997329712	-2.8552524250860
0.68000000715256	-2.9181498007115
0.68199998140335	-2.9822945901670
0.68400001525879	-3.0477056046477
0.68599998950958	-3.1144017254396
0.68800002336502	-3.1824103375812
0.68999999761581	-3.2517479043812
0.69199997186661	-3.3224391178996
0.69400000572205	-3.3945065498574
0.69599997997284	-3.4679741097070
0.69800001382828	-3.5428671742176
0.69999998807907	-3.6192077030075
0.70200002193451	-3.6970230439496
0.70399999618530	-3.7763400387649
0.70599997043610	-3.8571841008774
0.70800000429153	-3.9395847607574
0.70999997854233	-4.0235687483100
0.71200001239777	-4.1091676848091
0.71399998664856	-4.1964104762617
0.71600002050400	-4.2853275118090
0.71799999475479	-4.3759523821436
0.72000002861023	-4.4683177526293
0.72200000286102	-4.5624581894569
0.72399997711182	-4.6584075535147
0.72600001096725	-4.7562056626092
0.72799998521805	-4.8558864337331
0.73000001907349	-4.9574930237058
0.73199999332428	-5.0610616509010
0.73400002717972	-5.1666380128685
0.73600000143051	-5.2742648478392
0.73799997568130	-5.3839844520958
0.74000000953674	-5.4958475230635
0.74199998378754	-5.6098998126510
0.74400001764297	-5.7261940838762
0.74599999189377	-5.8447815744428
0.74800002574921	-5.9657172166218
0.75000000000000	-6.0890567686235
0.75199997425079	-6.2148601226579
0.75400000810623	-6.3431898420998
0.75599998235703	-6.4741081410442
0.75800001621246	-6.6076846227973
0.75999999046326	-6.7439865015990
0.76200002431870	-6.8830889751986
0.76399999856949	-7.0250678381053
0.76599997282028	-7.1700035285392
0.76800000667572	-7.3179772208881
0.76999998092651	-7.4690800560605
0.77200001478195	-7.6234022242492
0.77399998903275	-7.7810387321146
0.77600002288818	-7.9420933416275
0.77799999713898	-8.1066715062839
0.77999997138977	-8.2748824919287
0.78200000524521	-8.4468450982259
0.78399997949600	-8.6226827434648
0.78600001335144	-8.8025252286098
0.78799998760223	-8.9865101815093
0.79000002145767	-9.1747795658932
0.79199999570847	-9.3674882876808
0.79400002956390	-9.5647961500649
0.79600000381470	-9.7668710570845
0.79799997806549	-9.9738941781364
0.80000001192093	-10.186053701474
0.80199998617172	-10.403550684688
0.80400002002716	-10.626597119680
0.80599999427795	-10.855415528020
0.80800002813339	-11.090243299909
0.81000000238419	-11.331332242718
0.81199997663498	-11.578946196240
0.81400001049042	-11.833365952648
0.81599998474121	-12.094887565538
0.81800001859665	-12.363821448924
0.81999999284744	-12.640497755871
0.82200002670288	-12.925258479602
0.82400000095367	-13.218464905266
0.82599997520447	-13.520492565510
0.82800000905991	-13.831727939687
0.82999998331070	-14.152572349749
0.83200001716614	-14.483427908694
0.83399999141693	-14.824695845538
0.83600002527237	-15.176771316037
0.83799999952316	-15.540021292208
0.83999997377396	-15.914775122518
0.84200000762939	-16.301288790324
0.84399998188019	-16.699719302059
0.84600001573563	-17.110072972825
0.84799998998642	-17.532137203755
0.85000002384186	-17.965398059325
0.85199999809265	-18.408929936378
0.85399997234344	-18.861236741872
0.85600000619888	-19.320068984797
0.85799998044968	-19.782192418441
0.86000001430511	-20.243113236993
0.86199998855591	-20.696782993204
0.86400002241135	-21.135349268725
0.86599999666214	-21.548981720941
0.86799997091293	-21.925964144985
0.87000000476837	-22.253150255451
0.87199997901917	-22.516960831557
0.87400001287460	-22.704889101402
0.87599998712540	-22.807324703803
0.87800002098083	-22.819229247668
0.87999999523163	-22.741112040872
0.88200002908707	-22.578919473986
0.88400000333786	-22.342909925567
0.88599997758865	-22.045910233745
0.88800001144409	-21.701518727246
0.88999998569489	-21.322672548334
0.89200001955032	-20.920773699990
0.89399999380112	-20.505289007430
0.89600002765656	-20.083735498517
0.89800000190735	-19.661853151483
0.89999997615814	-19.243888041406
0.90200001001358	-18.832877642467
0.90399998426437	-18.430917416014
0.90600001811981	-18.039383720052
0.90799999237061	-17.659118413594
0.91000002622604	-17.290568036053
0.91200000047684	-16.933897794294
0.91399997472763	-16.589064455764
0.91600000858307	-16.255890600102
0.91799998283386	-15.934099068986
0.92000001668930	-15.623348545906
0.92199999094009	-15.323261894268
0.92400002479553	-15.033438917662
0.92599999904633	-14.753474240491
0.92799997329712	-14.482960231124
0.93000000715256	-14.221494930583
0.93199998140335	-13.968690268410
0.93400001525879	-13.724168094911
0.93599998950958	-13.487568469794
0.93800002336502	-13.258545425841
0.93999999761581	-13.036769935667
0.94199997186661	-12.821927570754
0.94400000572205	-12.613722303849
0.94599997997284	-12.411873075595
0.94800001382828	-12.216112757988
0.94999998807907	-12.026188126152
0.95200002193451	-11.841861738616
0.95399999618530	-11.662904062811
0.95599997043610	-11.489105890518
0.95800000429153	-11.320260650164
0.95999997854233	-11.156175784042
0.96200001239777	-10.996673633470
0.96399998664856	-10.841576866101
0.96600002050400	-10.690722864331
0.96799999475479	-10.543955699685
0.97000002861023	-10.401131744061
0.97200000286102	-10.262104474629
0.97399997711182	-10.126742247381
0.97600001096725	-9.9949190639469
0.97799998521805	-9.8665126093811
0.98000001907349	-9.7414072121495
0.98199999332428	-9.6194902803500
0.98400002717972	-9.5006598362641
0.98600000143051	-9.3848131449613
0.98799997568130	-9.2718543008293
0.99000000953674	-9.1616908094570
0.99199998378754	-9.0542333680963
0.99400001764297	-8.9493978329478
0.99599999189377	-8.8471027417987
0.99800002574921	-8.7472684279972
1.0000000000000	-8.6498210956709
1.0019999742508	-8.5546889850868
1.0039999485016	-8.4618015711673
1.0060000419617	-8.3710907919980
1.0080000162125	-8.2824929247240
1.0099999904633	-8.1959463025988
1.0119999647141	-8.1113898911133
1.0140000581741	-8.0287664371480
1.0160000324249	-7.9480190652962
1.0180000066757	-7.8690924522175
1.0199999809265	-7.7919359352779
1.0219999551773	-7.7164975443991
1.0240000486374	-7.6427271686254
1.0260000228882	-7.5705789126129
1.0279999971390	-7.5000059712955
1.0299999713898	-7.4309617885264
1.0319999456406	-7.3634043446389
1.0340000391006	-7.2972910088487
1.0360000133514	-7.2325791904062
1.0379999876022	-7.1692310633765
1.0399999618530	-7.1072044023553
1.0420000553131	-7.0464651781090
1.0440000295639	-6.9869741780581
1.0460000038147	-6.9286954733824
1.0479999780655	-6.8715945218128
1.0499999523163	-6.8156366777134
1.0520000457764	-6.7607903656577
1.0540000200272	-6.7070206018862
1.0559999942780	-6.6542978227502
1.0579999685287	-6.6025907862093
1.0599999427795	-6.5518697136113
1.0620000362396	-6.5021045743614
1.0640000104904	-6.4532678910613
1.0659999847412	-6.4053313255967
1.0679999589920	-6.3582671404898
1.0700000524521	-6.3120489827854
1.0720000267029	-6.2666516861257
1.0740000009537	-6.2220500617758
1.0759999752045	-6.1782195621238
1.0779999494553	-6.1351350435594
1.0800000429153	-6.0927744894788
1.0820000171661	-6.0511154386358
1.0839999914169	-6.0101340470803
1.0859999656677	-5.9698111744964
1.0880000591278	-5.9301229786182
1.0900000333786	-5.8910509191201
1.0920000076294	-5.8525737134840
1.0939999818802	-5.8146734108577
1.0959999561310	-5.7773319652543
1.0980000495911	-5.7405277988953
1.1000000238419	-5.7042449034430
1.1019999980927	-5.6684677990900
1.1039999723434	-5.6331764010457
1.1059999465942	-5.5983578948254
1.1080000400543	-5.5639915957976
1.1100000143051	-5.5300681044691
1.1119999885559	-5.4965693565968
1.1139999628067	-5.4634810803809
1.1160000562668	-5.4307912073671
1.1180000305176	-5.3984856426426
1.1200000047684	-5.3665516222485
1.1219999790192	-5.3349763403258
1.1239999532700	-5.3037476941108
1.1260000467300	-5.2728549217424
1.1280000209808	-5.2422866425509
1.1299999952316	-5.2120345863437
1.1319999694824	-5.1820852103979
1.1339999437332	-5.1524308247105
1.1360000371933	-5.1230616587319
