#Parameters = {L=131.5; D=10; Gap=1.5; Z0=73}
#"Frequency / GHz"	"S1,1 (L=131.5) [Magnitude]"
#----------------------------------------------
0.10000000149012	0.18303557954950
0.10440000146627	0.17088310820776
0.10880000144243	0.15841584360303
0.11320000141859	0.14565794210863
0.11760000139475	0.13263636007082
0.12200000137091	0.11937644476135
0.12639999389648	0.10590608401563
0.13079999387264	0.092254330254743
0.13519999384880	0.078446966588973
0.13959999382496	0.064515813137073
0.14399999380112	0.050488228421924
0.14839999377728	0.036395952527457
0.15279999375343	0.022266012773776
0.15719999372959	0.0081319701063833
0.16159999370575	-0.0059768558844068
0.16599999368191	-0.020029421351914
0.17039999365807	-0.033996428513784
0.17479999363422	-0.047845354016379
0.17919999361038	-0.061546837097965
0.18359999358654	-0.075070221865934
0.18799999356270	-0.088385891659895
0.19239999353886	-0.10146287665790
0.19679999351501	-0.11427462567775
0.20119999349117	-0.12678974143564
0.20559999346733	-0.13898220583365
0.20999999344349	-0.15082504917859
0.21439999341965	-0.16229096424715
0.21879999339581	-0.17335590266390
0.22319999337196	-0.18399418633519
0.22759999334812	-0.19418503098036
0.23199999332428	-0.20390450501123
0.23639999330044	-0.21313529842006
0.24079999327660	-0.22185383692778
0.24519999325275	-0.23004678586759
0.24959999322891	-0.23769537310446
0.25400000810623	-0.24478673269191
0.25839999318123	-0.25130845183269
0.26280000805855	-0.25724795019383
0.26719999313354	-0.26259763025745
0.27160000801086	-0.26735004676534
0.27599999308586	-0.27149959681094
0.28040000796318	-0.27504316381594
0.28479999303818	-0.27797865167748
0.28920000791550	-0.28030744727205
0.29359999299049	-0.28203071961189
0.29800000786781	-0.28315438061169
0.30239999294281	-0.28368448714627
0.30680000782013	-0.28362955111701
0.31119999289513	-0.28299931735059
0.31560000777245	-0.28180592271504
0.31999999284744	-0.28006437751731
0.32440000772476	-0.27779148064655
0.32879999279976	-0.27500276225525
0.33320000767708	-0.27171838497338
0.33759999275208	-0.26796061250246
0.34200000762939	-0.26375207341442
0.34639999270439	-0.25911653916931
0.35080000758171	-0.25407873635438
0.35519999265671	-0.24866806945881
0.35960000753403	-0.24291020779620
0.36399999260902	-0.23683790588111
0.36840000748634	-0.23048077517167
0.37279999256134	-0.22387180209301
0.37720000743866	-0.21704140973603
0.38159999251366	-0.21002526288965
0.38600000739098	-0.20285889541972
0.39039999246597	-0.19557606713811
0.39480000734329	-0.18821303578660
0.39919999241829	-0.18080576517587
0.40360000729561	-0.17339283765209
0.40799999237061	-0.16601061778315
0.41240000724792	-0.15869675108216
0.41679999232292	-0.15149016105855
0.42120000720024	-0.14442688058721
0.42559999227524	-0.13754851327805
0.43000000715256	-0.13089031757045
0.43439999222755	-0.12449233768790
0.43880000710487	-0.11839217582523
0.44319999217987	-0.11262780351266
0.44760000705719	-0.10723741330282
0.45199999213219	-0.10225920230322
0.45640000700951	-0.097729488114463
0.46079999208450	-0.093687140020719
0.46520000696182	-0.090167303257345
0.46959999203682	-0.087208056421691
0.47400000691414	-0.084843929894640
0.47839999198914	-0.083112018078547
0.48280000686646	-0.082046134729080
0.48719999194145	-0.081682281017349
0.49160000681877	-0.082054321573030
0.49599999189377	-0.083197618302922
0.50040000677109	-0.085143705936913
0.50480002164841	-0.087924971888913
0.50919997692108	-0.091576551698533
0.51359999179840	-0.096128835430127
0.51800000667572	-0.10161325597064
0.52240002155304	-0.10806183423104
0.52679997682571	-0.11550403081521
0.53119999170303	-0.12397066588232
0.53560000658035	-0.13348919005070
0.54000002145767	-0.14409284928392
0.54439997673035	-0.15580677998249
0.54879999160767	-0.16866225487213
0.55320000648499	-0.18268317869589
0.55760002136230	-0.19790162736456
0.56199997663498	-0.21434127437934
0.56639999151230	-0.23203271198099
0.57080000638962	-0.25099894841827
0.57520002126694	-0.27126574790448
0.57959997653961	-0.29286258497544
0.58399999141693	-0.31581166850506
0.58840000629425	-0.34014017516550
0.59280002117157	-0.36587255928340
0.59719997644424	-0.39303496905049
0.60159999132156	-0.42164885974878
0.60600000619888	-0.45174316982446
0.61040002107620	-0.48333970020378
0.61479997634888	-0.51646291838543
0.61919999122620	-0.55113765717546
0.62360000610352	-0.58738715732467
0.62800002098083	-0.62523687392436
0.63239997625351	-0.66471135435403
0.63679999113083	-0.70583221663519
0.64120000600815	-0.74862632774480
0.64560002088547	-0.79311661381564
0.64999997615814	-0.83932840591338
0.65439999103546	-0.88728492695495
0.65880000591278	-0.93701095221012
0.66320002079010	-0.98853252285079
0.66759997606277	-1.0418755063007
0.67199999094009	-1.0970618104158
0.67640000581741	-1.1541192116839
0.68080002069473	-1.2130736552918
0.68519997596741	-1.2739518065281
0.68959999084473	-1.3367786988952
0.69400000572205	-1.4015820966027
0.69840002059937	-1.4683896758433
0.70279997587204	-1.5372280061383
0.70719999074936	-1.6081266928410
0.71160000562668	-1.6811133055467
0.71600002050400	-1.7562183428079
0.72039997577667	-1.8334712449259
0.72479999065399	-1.9129016470964
0.72920000553131	-1.9945412105872
0.73360002040863	-2.0784209072590
0.73799997568130	-2.1645755255518
0.74239999055862	-2.2530348628866
0.74680000543594	-2.3438345669683
0.75120002031326	-2.4370091550741
0.75559997558594	-2.5325930738007
0.75999999046326	-2.6306234335126
0.76440000534058	-2.7311376297220
0.76880002021790	-2.8341724085751
0.77319997549057	-2.9397670614940
0.77759999036789	-3.0479608113656
0.78200000524521	-3.1587940270501
0.78640002012253	-3.2723092049558
0.79079997539520	-3.3885464740133
0.79519999027252	-3.5075516293546
0.79960000514984	-3.6293667458169
0.80400002002716	-3.7540377458982
0.80839997529984	-3.8816085324541
0.81279999017715	-4.0121290183886
0.81720000505447	-4.1456423975840
0.82160001993179	-4.2822005192396
0.82599997520447	-4.4218485917123
0.83039999008179	-4.5646348724466
0.83480000495911	-4.7106102318283
0.83920001983643	-4.8598230149294
0.84359997510910	-5.0123225833439
0.84799998998642	-5.1681559843805
0.85240000486374	-5.3273721973106
0.85680001974106	-5.4900142979987
0.86119997501373	-5.6561317869730
0.86559998989105	-5.8257649426945
0.87000000476837	-5.9989531829953
0.87440001964569	-6.1757329960965
0.87879997491837	-6.3561369080945
0.88319998979568	-6.5401917644462
0.88760000467300	-6.7279153869225
0.89200001955032	-6.9193209685001
0.89639997482300	-7.1144113379937
0.90079998970032	-7.3131767953029
0.90520000457764	-7.5155936284277
0.90960001945496	-7.7216211386282
0.91399997472763	-7.9312041772120
0.91839998960495	-8.1442608834632
0.92280000448227	-8.3606825228602
0.92720001935959	-8.5803324999898
0.93159997463226	-8.8030377400761
0.93599998950958	-9.0285818047843
0.94040000438690	-9.2567014399957
0.94480001926422	-9.4870828361983
0.94919997453690	-9.7193464433907
0.95359998941422	-9.9530397623212
0.95800000429153	-10.187639791661
0.96240001916885	-10.422524683850
0.96679997444153	-10.656983518266
0.97119998931885	-10.890195434898
0.97560000419617	-11.121226356065
0.98000001907349	-11.349022755255
0.98439997434616	-11.572407212892
0.98879998922348	-11.790076606163
0.99320000410080	-12.000614745355
0.99760001897812	-12.202492316132
1.0019999742508	-12.394093745783
1.0063999891281	-12.573742835145
1.0108000040054	-12.739735837751
1.0152000188828	-12.890388259746
1.0196000337601	-13.024087665586
1.0240000486374	-13.139346683879
1.0283999443054	-13.234867294642
1.0327999591827	-13.309596177647
1.0371999740601	-13.362770274105
1.0415999889374	-13.393956824209
1.0460000038147	-13.403078550286
1.0504000186920	-13.390411117475
1.0548000335693	-13.356570600092
1.0592000484467	-13.302485873912
1.0635999441147	-13.229350948652
1.0679999589920	-13.138568872478
1.0723999738693	-13.031698073802
1.0767999887466	-12.910389259013
1.0812000036240	-12.776332836996
1.0856000185013	-12.631214467342
1.0900000333786	-12.476667113285
1.0944000482559	-12.314249243822
1.0987999439240	-12.145414113665
1.1031999588013	-11.971507411114
1.1075999736786	-11.793744767613
1.1119999885559	-11.613223014292
1.1164000034332	-11.430916029514
1.1208000183105	-11.247679610039
1.1252000331879	-11.064258511462
1.1296000480652	-10.881301861698
1.1339999437332	-10.699360729475
1.1383999586105	-10.518907169921
1.1427999734879	-10.340336424784
1.1471999883652	-10.163980657518
1.1516000032425	-9.9901135739026
1.1560000181198	-9.8189558363150
1.1604000329971	-9.6506882799751
1.1648000478745	-9.4854514387953
1.1691999435425	-9.3233532334066
1.1735999584198	-9.1644739352733
1.1779999732971	-9.0088691173725
1.1823999881744	-8.8565738639306
1.1868000030518	-8.7076071799012
1.1912000179291	-8.5619695426540
1.1956000328064	-8.4196535713354
1.2000000476837	-8.2806370424972
1.2043999433517	-8.1448931826304
1.2087999582291	-8.0123850731763
1.2131999731064	-7.8830697097430
1.2175999879837	-7.7569022036208
1.2220000028610	-7.6338298281751
1.2264000177383	-7.5137978061071
1.2308000326157	-7.3967497613449
1.2352000474930	-7.2826287696420
1.2395999431610	-7.1713728502790
1.2439999580383	-7.0629221702073
1.2483999729156	-6.9572136088040
1.2527999877930	-6.8541856932408
1.2572000026703	-6.7537763381651
1.2616000175476	-6.6559241551593
1.2660000324249	-6.5605652668028
1.2704000473022	-6.4676396284576
1.2747999429703	-6.3770871135814
1.2791999578476	-6.2888460649579
1.2835999727249	-6.2028567584958
1.2879999876022	-6.1190621507023
1.2924000024796	-6.0374017565475
1.2968000173569	-5.9578211512918
1.3012000322342	-5.8802634838518
1.3056000471115	-5.8046705852368
1.3099999427795	-5.7309921096170
1.3143999576569	-5.6591726277392
1.3187999725342	-5.5891600067410
1.3231999874115	-5.5209027462362
1.3276000022888	-5.4543523595133
1.3320000171661	-5.3894567486111
1.3364000320435	-5.3261686539284
1.3408000469208	-5.2644391221889
1.3451999425888	-5.2042233920445
1.3495999574661	-5.1454738885329
1.3539999723434	-5.0881477573681
1.3583999872208	-5.0321991346188
1.3628000020981	-4.9775864624606
1.3672000169754	-4.9242665629348
1.3716000318527	-4.8721999125152
1.3760000467300	-4.8213444670764
1.3803999423981	-4.7716626337352
1.3847999572754	-4.7231137069820
1.3891999721527	-4.6756619829342
1.3935999870300	-4.6292688599215
1.3980000019073	-4.5839013340952
1.4024000167847	-4.5395216892975
1.4068000316620	-4.4960955193530
1.4112000465393	-4.4535913307128
1.4155999422073	-4.4119749197986
1.4199999570847	-4.3712157278187
1.4243999719620	-4.3312824567508
1.4287999868393	-4.2921447491721
1.4332000017166	-4.2537735314030
1.4376000165939	-4.2161406436653
1.4420000314713	-4.1792189210691
1.4464000463486	-4.1429799389666
1.4507999420166	-4.1073997544536
1.4551999568939	-4.0724515081545
1.4595999717712	-4.0381125444308
1.4639999866486	-4.0043585497039
1.4684000015259	-3.9711646297447
1.4728000164032	-3.9385130024409
1.4772000312805	-3.9063786004894
1.4816000461578	-3.8747441357238
1.4859999418259	-3.8435893921511
1.4903999567032	-3.8128930662096
1.4947999715805	-3.7826407574703
1.4991999864578	-3.7528122980583
1.5036000013351	-3.7233937501933
1.5080000162125	-3.6943664005270
1.5124000310898	-3.6657174775709
1.5168000459671	-3.6374312667607
1.5211999416351	-3.6094948319897
1.5255999565125	-3.5818955549729
1.5299999713898	-3.5546214726115
1.5343999862671	-3.5276593015433
1.5388000011444	-3.5010005465229
1.5432000160217	-3.4746322664425
1.5476000308990	-3.4485488488401
1.5520000457764	-3.4227374525483
1.5563999414444	-3.3971921632679
1.5607999563217	-3.3719038799723
1.5651999711990	-3.3468663912665
1.5695999860764	-3.3220726577200
1.5740000009537	-3.2975169850699
1.5784000158310	-3.2731928707529
1.5828000307083	-3.2490968354237
1.5872000455856	-3.2252231983236
1.5915999412537	-3.2015685097410
1.5959999561310	-3.1781295156556
1.6003999710083	-3.1549013150559
1.6047999858856	-3.1318827414584
1.6092000007629	-3.1090710189979
1.6136000156403	-3.0864637744032
1.6180000305176	-3.0640590418411
1.6224000453949	-3.0418566684914
1.6267999410629	-3.0198545089409
1.6311999559402	-2.9980518046757
1.6355999708176	-2.9764481971762
1.6399999856949	-2.9550443211438
1.6444000005722	-2.9338386733514
1.6488000154495	-2.9128322038278
1.6532000303268	-2.8920256289804
1.6576000452042	-2.8714183281396
1.6619999408722	-2.8510112216250
1.6663999557495	-2.8308056135078
1.6707999706268	-2.8108018994859
1.6751999855042	-2.7910002720135
1.6796000003815	-2.7714031529963
1.6840000152588	-2.7520110195705
1.6884000301361	-2.7328255928368
1.6928000450134	-2.7138464131930
1.6971999406815	-2.6950756674234
1.7015999555588	-2.6765134690500
1.7059999704361	-2.6581632099920
1.7103999853134	-2.6400242663421
1.7148000001907	-2.6220973937714
1.7192000150681	-2.6043843444223
1.7236000299454	-2.5868854072238
1.7280000448227	-2.5696030743827
1.7323999404907	-2.5525350146061
1.7367999553680	-2.5356841374694
1.7411999702454	-2.5190511387590
1.7455999851227	-2.5026337298048
1.7500000000000	-2.4864359180819
1.7544000148773	-2.4704551917693
1.7588000297546	-2.4546928832133
1.7632000446320	-2.4391484608943
1.7676000595093	-2.4238214982025
1.7719999551773	-2.4087119073540
1.7763999700546	-2.3938183986097
1.7807999849319	-2.3791414188444
1.7851999998093	-2.3646800846509
1.7896000146866	-2.3504320044843
1.7940000295639	-2.3363962049555
1.7984000444412	-2.3225731194386
1.8028000593185	-2.3089592028276
1.8071999549866	-2.2955544090716
1.8115999698639	-2.2823554638712
1.8159999847412	-2.2693607724377
1.8203999996185	-2.2565704769910
1.8248000144958	-2.2439783237792
1.8292000293732	-2.2315858212980
1.8336000442505	-2.2193873548594
1.8380000591278	-2.2073832365609
1.8423999547958	-2.1955676380865
1.8467999696732	-2.1839403379832
1.8511999845505	-2.1724961905403
1.8555999994278	-2.1612324618428
1.8600000143051	-2.1501474073246
1.8644000291824	-2.1392352327724
1.8688000440598	-2.1284952103385
1.8732000589371	-2.1179218556244
1.8775999546051	-2.1075122910997
1.8819999694824	-2.0972628175125
1.8863999843597	-2.0871695019587
1.8907999992371	-2.0772284839448
1.8952000141144	-2.0674360911530
1.8996000289917	-2.0577878301965
1.9040000438690	-2.0482810062988
1.9084000587463	-2.0389099248715
1.9127999544144	-2.0296725146007
1.9171999692917	-2.0205639425918
1.9215999841690	-2.0115802294261
1.9259999990463	-2.0027179367971
1.9304000139236	-1.9939717835631
1.9348000288010	-1.9853385678523
1.9392000436783	-1.9768149087823
1.9436000585556	-1.9683976314215
1.9479999542236	-1.9600808871300
1.9523999691010	-1.9518621036267
1.9567999839783	-1.9437374352602
1.9611999988556	-1.9357043545380
1.9656000137329	-1.9277570642367
1.9700000286102	-1.9198949635276
1.9744000434875	-1.9121122717106
1.9788000583649	-1.9044058160619
1.9831999540329	-1.8967755890008
1.9875999689102	-1.8892150980925
1.9919999837875	-1.8817224243039
1.9963999986649	-1.8742963027072
2.0007998943329	-1.8669327827119
2.0051999092102	-1.8596291556829
2.0095999240875	-1.8523845925392
2.0139999389648	-1.8451953621012
2.0183999538422	-1.8380597042973
2.0227999687195	-1.8309757012608
2.0271999835968	-1.8239416729597
2.0315999984741	-1.8169568509317
2.0360000133514	-1.8100188320305
2.0404000282288	-1.8031262924371
2.0448000431061	-1.7962786701557
2.0492000579834	-1.7894748410762
2.0536000728607	-1.7827129871519
2.0580000877380	-1.7759934772102
2.0624001026154	-1.7693160273898
2.0668001174927	-1.7626795164755
2.0711998939514	-1.7560842232280
2.0755999088287	-1.7495295942375
2.0799999237061	-1.7430157057928
2.0843999385834	-1.7365439000946
2.0887999534607	-1.7301128554316
2.0931999683380	-1.7237246535451
2.0975999832153	-1.7173782017049
2.1019999980927	-1.7110767343876
2.1064000129700	-1.7048180442129
2.1108000278473	-1.6986063381764
2.1152000427246	-1.6924400177342
2.1196000576019	-1.6863221788411
2.1240000724792	-1.6802528331305
2.1284000873566	-1.6742352238503
2.1328001022339	-1.6682687331375
2.1372001171112	-1.6623571371871
2.1415998935699	-1.6564988945015
2.1459999084473	-1.6506995689067
2.1503999233246	-1.6449597004042
2.1547999382019	-1.6392792813607
2.1591999530792	-1.6336625732428
2.1635999679565	-1.6281107813799
2.1679999828339	-1.6226262244238
2.1723999977112	-1.6172113536551
2.1768000125885	-1.6118663239427
2.1812000274658	-1.6065960083441
2.1856000423431	-1.6013997234449
2.1900000572205	-1.5962825809329
2.1944000720978	-1.5912444727615
2.1988000869751	-1.5862877748609
2.2032001018524	-1.5814149489630
2.2076001167297	-1.5766302073559
2.2119998931885	-1.5719328802207
2.2163999080658	-1.5673253854826
2.2207999229431	-1.5628112432308
2.2251999378204	-1.5583907563810
2.2295999526978	-1.5540670012887
2.2339999675751	-1.5498424739618
2.2383999824524	-1.5457165526599
2.2427999973297	-1.5416940941257
2.2472000122070	-1.5377744088600
2.2516000270844	-1.5339609604562
2.2560000419617	-1.5302538092186
2.2604000568390	-1.5266557970389
2.2648000717163	-1.5231680754339
2.2692000865936	-1.5197910564710
2.2736001014709	-1.5165278188745
2.2780001163483	-1.5133781660294
2.2823998928070	-1.5103434497892
2.2867999076843	-1.5074265545030
2.2911999225616	-1.5046256991525
2.2955999374390	-1.5019427036577
2.2999999523163	-1.4993785464130
2.3043999671936	-1.4969364217107
2.3087999820709	-1.4946137075498
2.3131999969482	-1.4924119730553
2.3176000118256	-1.4903309651530
2.3220000267029	-1.4883735095286
2.3264000415802	-1.4865376189972
2.3308000564575	-1.4848248656684
2.3352000713348	-1.4832358218052
2.3396000862122	-1.4817687364472
2.3440001010895	-1.4804255856751
2.3484001159668	-1.4792058867625
2.3527998924255	-1.4781091127952
2.3571999073029	-1.4771357137460
2.3615999221802	-1.4762857434633
2.3659999370575	-1.4755585650932
2.3703999519348	-1.4749530337479
2.3747999668121	-1.4744706100288
2.3791999816895	-1.4741117607009
2.3835999965668	-1.4738723842152
2.3880000114441	-1.4737556776638
2.3924000263214	-1.4737617658301
2.3968000411987	-1.4738864221611
2.4012000560760	-1.4741336673011
2.4056000709534	-1.4744998051757
2.4100000858307	-1.4749863670096
2.4144001007080	-1.4755926906775
2.4188001155853	-1.4763192985723
2.4231998920441	-1.4771642530890
2.4275999069214	-1.4781279951523
2.4319999217987	-1.4792110945528
2.4363999366760	-1.4804129185551
2.4407999515533	-1.4817324787487
2.4451999664307	-1.4831718657108
2.4495999813080	-1.4847291784017
2.4539999961853	-1.4864063084912
2.4584000110626	-1.4882025054306
2.4628000259399	-1.4901179890405
2.4672000408173	-1.4921521318078
2.4716000556946	-1.4943081815952
2.4760000705719	-1.4965838460609
2.4804000854492	-1.4989818170777
2.4848001003265	-1.5015027508374
2.4892001152039	-1.5041462818227
2.4935998916626	-1.5069139544228
2.4979999065399	-1.5098091888170
2.5023999214172	-1.5128284954296
2.5067999362946	-1.5159785105882
2.5111999511719	-1.5192589756870
2.5155999660492	-1.5226688157350
2.5199999809265	-1.5262134657163
2.5243999958038	-1.5298930702822
2.5288000106812	-1.5337115377736
2.5332000255585	-1.5376680968763
2.5376000404358	-1.5417687944893
2.5420000553131	-1.5460124045105
2.5464000701904	-1.5504041546925
2.5508000850677	-1.5549470796031
2.5552000999451	-1.5596432991129
2.5596001148224	-1.5644957117501
2.5639998912811	-1.5695083522944
2.5683999061584	-1.5746838220436
2.5727999210358	-1.5800263823023
2.5771999359131	-1.5855392738483
2.5815999507904	-1.5912269125208
2.5859999656677	-1.5970927343761
2.5903999805450	-1.6031407770395
2.5947999954224	-1.6093764960901
2.5992000102997	-1.6158014260593
2.6036000251770	-1.6224222734914
2.6080000400543	-1.6292437346136
2.6124000549316	-1.6362688792381
2.6168000698090	-1.6435042327083
2.6212000846863	-1.6509527845463
2.6256000995636	-1.6586205477990
2.6300001144409	-1.6665120203680
2.6343998908997	-1.6746326708875
2.6387999057770	-1.6829876509417
2.6431999206543	-1.6915810173110
2.6475999355316	-1.7004189944302
2.6519999504089	-1.7095062027146
2.6563999652863	-1.7188483703762
2.6607999801636	-1.7284501256617
2.6651999950409	-1.7383169727417
2.6696000099182	-1.7484536428350
2.6740000247955	-1.7588658644389
2.6784000396729	-1.7695587004314
2.6828000545502	-1.7805369568768
2.6872000694275	-1.7918059803013
2.6916000843048	-1.8033705497551
2.6960000991821	-1.8152358495511
