#Parameters = {L=137.5; D=10; Gap=1.5; Z0=73}
#"Frequency / GHz"	"S1,1 (L=137.5) [Magnitude]"
#----------------------------------------------
0.10000000149012	0.16641910820808
0.10440000146627	0.15330427239764
0.10880000144243	0.13987260486904
0.11320000141859	0.12615490587039
0.11760000139475	0.11218032395353
0.12200000137091	0.097982449531527
0.12639999389648	0.083591944850580
0.13079999387264	0.069042611226856
0.13519999384880	0.054367081606446
0.13959999382496	0.039599764381514
0.14399999380112	0.024775891270169
0.14839999377728	0.0099286948808025
0.15279999375343	-0.0049048018999582
0.15719999372959	-0.019690174520866
0.16159999370575	-0.034390829813121
0.16599999368191	-0.048972222298019
0.17039999365807	-0.063399781206536
0.17479999363422	-0.077636356776761
0.17919999361038	-0.091648822945891
0.18359999358654	-0.10540205477220
0.18799999356270	-0.11886240832335
0.19239999353886	-0.13199669981814
0.19679999351501	-0.14477264179192
0.20119999349117	-0.15715946842345
0.20559999346733	-0.16912524118080
0.20999999344349	-0.18064157096077
0.21439999341965	-0.19168106490325
0.21879999339581	-0.20221665676432
0.22319999337196	-0.21222234134497
0.22759999334812	-0.22167730673839
0.23199999332428	-0.23055747190145
0.23639999330044	-0.23884365165569
0.24079999327660	-0.24651686965560
0.24519999325275	-0.25356321578706
0.24959999322891	-0.25996787167847
0.25400000810623	-0.26571860186711
0.25839999318123	-0.27080557628393
0.26280000805855	-0.27522209647070
0.26719999313354	-0.27896272442184
0.27160000801086	-0.28202580706189
0.27599999308586	-0.28440934376713
0.28040000796318	-0.28611806847739
0.28479999303818	-0.28715471498127
0.28920000791550	-0.28752567743868
0.29359999299049	-0.28724373227368
0.29800000786781	-0.28631503050588
0.30239999294281	-0.28475755321125
0.30680000782013	-0.28258637425470
0.31119999289513	-0.27981991148623
0.31560000777245	-0.27648012912851
0.31999999284744	-0.27258702711547
0.32440000772476	-0.26816866309068
0.32879999279976	-0.26324913827168
0.33320000767708	-0.25785826447195
0.33759999275208	-0.25202608711629
0.34200000762939	-0.24578446518161
0.34639999270439	-0.23916718332798
0.35080000758171	-0.23220904176774
0.35519999265671	-0.22494574130919
0.35960000753403	-0.21741598962894
0.36399999260902	-0.20965886900544
0.36840000748634	-0.20171249419865
0.37279999256134	-0.19361768573771
0.37720000743866	-0.18541671438235
0.38159999251366	-0.17715083517376
0.38600000739098	-0.16886348771901
0.39039999246597	-0.16059733334810
0.39480000734329	-0.15239613368431
0.39919999241829	-0.14430390157484
0.40360000729561	-0.13636485936476
0.40799999237061	-0.12862307837146
0.41240000724792	-0.12112149441865
0.41679999232292	-0.11390619366594
0.42120000720024	-0.10702135422566
0.42559999227524	-0.10050969916031
0.43000000715256	-0.094415769497342
0.43439999222755	-0.088783765925101
0.43880000710487	-0.083655301572559
0.44319999217987	-0.079074482412994
0.44760000705719	-0.075082552544563
0.45199999213219	-0.071722503317207
0.45640000700951	-0.069035567204062
0.46079999208450	-0.067061836530446
0.46520000696182	-0.065842732148934
0.46959999203682	-0.065419678603136
0.47400000691414	-0.065827276833314
0.47839999198914	-0.067108380411833
0.48280000686646	-0.069299920651512
0.48719999194145	-0.072439789564721
0.49160000681877	-0.076563621276538
0.49599999189377	-0.081709301420433
0.50040000677109	-0.087912498389393
0.50480002164841	-0.095207534945324
0.50919997692108	-0.10362990303663
0.51359999179840	-0.11321401228082
0.51800000667572	-0.12399300522512
0.52240002155304	-0.13599984146625
0.52679997682571	-0.14926705112937
0.53119999170303	-0.16382805770721
0.53560000658035	-0.17971291587591
0.54000002145767	-0.19695325257259
0.54439997673035	-0.21558126713643
0.54879999160767	-0.23562457319267
0.55320000648499	-0.25711491682266
0.55760002136230	-0.28008315134416
0.56199997663498	-0.30455644340384
0.56639999151230	-0.33056619439711
0.57080000638962	-0.35813927426934
0.57520002126694	-0.38730537814257
0.57959997653961	-0.41809427359886
0.58399999141693	-0.45053122854039
0.58840000629425	-0.48464696607480
0.59280002117157	-0.52046877871527
0.59719997644424	-0.55802484923067
0.60159999132156	-0.59734288873968
0.60600000619888	-0.63845185269784
0.61040002107620	-0.68138024465604
0.61479997634888	-0.72615376097880
0.61919999122620	-0.77280347871158
0.62360000610352	-0.82135553203746
0.62800002098083	-0.87184135445296
0.63239997625351	-0.92428647172541
0.63679999113083	-0.97872248545660
0.64120000600815	-1.0351791013970
0.64560002088547	-1.0936849433983
0.64999997615814	-1.1542686128435
0.65439999103546	-1.2169639186184
0.65880000591278	-1.2818005879989
0.66320002079010	-1.3488104847131
0.66759997606277	-1.4180230143564
0.67199999094009	-1.4894737612411
0.67640000581741	-1.5631956844047
0.68080002069473	-1.6392211021266
0.68519997596741	-1.7175862772561
0.68959999084473	-1.7983245039923
0.69400000572205	-1.8814750469946
0.69840002059937	-1.9670712059779
0.70279997587204	-2.0551533435269
0.70719999074936	-2.1457596109823
0.71160000562668	-2.2389289944074
0.71600002050400	-2.3347027686688
0.72039997577667	-2.4331216803866
0.72479999065399	-2.5342302413918
0.72920000553131	-2.6380714510633
0.73360002040863	-2.7446907144627
0.73799997568130	-2.8541332849747
0.74239999055862	-2.9664489974252
0.74680000543594	-3.0816838423345
0.75120002031326	-3.1998899540752
0.75559997558594	-3.3211169714649
0.75999999046326	-3.4454208069078
0.76440000534058	-3.5728520911894
0.76880002021790	-3.7034679332067
0.77319997549057	-3.8373259266242
0.77759999036789	-3.9744819350302
0.78200000524521	-4.1149969481827
0.78640002012253	-4.2589314019224
0.79079997539520	-4.4063462565086
0.79519999027252	-4.5573043736602
0.79960000514984	-4.7118688992281
0.80400002002716	-4.8701059978103
0.80839997529984	-5.0320789024609
0.81279999017715	-5.1978523020363
0.81720000505447	-5.3674911197505
0.82160001993179	-5.5410588484509
0.82599997520447	-5.7186200897668
0.83039999008179	-5.9002340571703
0.83480000495911	-6.0859603511756
0.83920001983643	-6.2758547628485
0.84359997510910	-6.4699658768772
0.84799998998642	-6.6683395121335
0.85240000486374	-6.8710153481497
0.85680001974106	-7.0780192310556
0.86119997501373	-7.2893696451620
0.86559998989105	-7.5050694350455
0.87000000476837	-7.7251048300484
0.87440001964569	-7.9494448371481
0.87879997491837	-8.1780277792511
0.88319998979568	-8.4107671226675
0.88760000467300	-8.6475409707669
0.89200001955032	-8.8881845087242
0.89639997482300	-9.1324860586624
0.90079998970032	-9.3801734459578
0.90520000457764	-9.6309095762765
0.90960001945496	-9.8842789507377
0.91399997472763	-10.139775077171
0.91839998960495	-10.396787590443
0.92280000448227	-10.654589318517
0.92720001935959	-10.912320638163
0.93159997463226	-11.168974927899
0.93599998950958	-11.423388167261
0.94040000438690	-11.674221178499
0.94480001926422	-11.919960594540
0.94919997453690	-12.158909466949
0.95359998941422	-12.389200785022
0.95800000429153	-12.608811659472
0.96240001916885	-12.815591908306
0.96679997444153	-13.007311610838
0.97119998931885	-13.181722779757
0.97560000419617	-13.336629604557
0.98000001907349	-13.469980174272
0.98439997434616	-13.579957757076
0.98879998922348	-13.665071993998
0.99320000410080	-13.724244033024
0.99760001897812	-13.756866249863
1.0019999742508	-13.762842517034
1.0063999891281	-13.742591149405
1.0108000040054	-13.697019292984
1.0152000188828	-13.627470445625
1.0196000337601	-13.535644656453
1.0240000486374	-13.423510127883
1.0283999443054	-13.293210936693
1.0327999591827	-13.146975219528
1.0371999740601	-12.987038406692
1.0415999889374	-12.815569024947
1.0460000038147	-12.634631337743
1.0504000186920	-12.446136626710
1.0548000335693	-12.251833928474
1.0592000484467	-12.053288471232
1.0635999441147	-11.851888861073
1.0679999589920	-11.648846844526
1.0723999738693	-11.445215557541
1.0767999887466	-11.241889611176
1.0812000036240	-11.039630888697
1.0856000185013	-10.839076940321
1.0900000333786	-10.640757218999
1.0944000482559	-10.445106580516
1.0987999439240	-10.252475660726
1.1031999588013	-10.063145954946
1.1075999736786	-9.8773355065025
1.1119999885559	-9.6952153747737
1.1164000034332	-9.5169051004696
1.1208000183105	-9.3424944581916
1.1252000331879	-9.1720361547355
1.1296000480652	-9.0055593896267
1.1339999437332	-8.8430732728031
1.1383999586105	-8.6845640926733
1.1427999734879	-8.5300050529265
1.1471999883652	-8.3793603775187
1.1516000032425	-8.2325797680709
1.1560000181198	-8.0896068024561
1.1604000329971	-7.9503795721978
1.1648000478745	-7.8148287731757
1.1691999435425	-7.6828835455583
1.1735999584198	-7.5544682817677
1.1779999732971	-7.4295065846273
1.1823999881744	-7.3079188403369
1.1868000030518	-7.1896274757412
1.1912000179291	-7.0745505511776
1.1956000328064	-6.9626109072521
1.2000000476837	-6.8537268980205
1.2043999433517	-6.7478199809741
1.2087999582291	-6.6448103925444
1.2131999731064	-6.5446234491894
1.2175999879837	-6.4471818594761
1.2220000028610	-6.3524082194220
1.2264000177383	-6.2602296341337
1.2308000326157	-6.1705730316390
1.2352000474930	-6.0833678688054
1.2395999431610	-5.9985422339138
1.2439999580383	-5.9160282262429
1.2483999729156	-5.8357573319814
1.2527999877930	-5.7576640329550
1.2572000026703	-5.6816824705873
1.2616000175476	-5.6077500859410
1.2660000324249	-5.5358057118505
1.2704000473022	-5.4657857279819
1.2747999429703	-5.3976308719969
1.2791999578476	-5.3312857896588
1.2835999727249	-5.2666895261302
1.2879999876022	-5.2037880672267
1.2924000024796	-5.1425280396140
1.2968000173569	-5.0828540296481
1.3012000322342	-5.0247144890164
1.3056000471115	-4.9680588226579
1.3099999427795	-4.9128367503661
1.3143999576569	-4.8590010797100
1.3187999725342	-4.8064998707420
1.3231999874115	-4.7552913693750
1.3276000022888	-4.7053304018517
1.3320000171661	-4.6565675537513
1.3364000320435	-4.6089649707121
1.3408000469208	-4.5624764498567
1.3451999425888	-4.5170647986591
1.3495999574661	-4.4726872571527
1.3539999723434	-4.4293056336315
1.3583999872208	-4.3868828876814
1.3628000020981	-4.3453804042848
1.3672000169754	-4.3047639667526
1.3716000318527	-4.2649979579495
1.3760000467300	-4.2260478839334
1.3803999423981	-4.1878820575691
1.3847999572754	-4.1504695736804
1.3891999721527	-4.1137782601951
1.3935999870300	-4.0777782820395
1.3980000019073	-4.0424400199510
1.4024000167847	-4.0077391027701
1.4068000316620	-3.9736448405011
1.4112000465393	-3.9401343010918
1.4155999422073	-3.9071800922971
1.4199999570847	-3.8747622919303
1.4243999719620	-3.8428537582775
1.4287999868393	-3.8114348183495
1.4332000017166	-3.7804837125184
1.4376000165939	-3.7499811050878
1.4420000314713	-3.7199084353206
1.4464000463486	-3.6902463790000
1.4507999420166	-3.6609770631700
1.4551999568939	-3.6320861556510
1.4595999717712	-3.6035571717928
1.4639999866486	-3.5753750756091
1.4684000015259	-3.5475274839020
1.4728000164032	-3.5200000031155
1.4772000312805	-3.4927823897281
1.4816000461578	-3.4658610828142
1.4859999418259	-3.4392275788788
1.4903999567032	-3.4128706437918
1.4947999715805	-3.3867834405213
1.4991999864578	-3.3609548279975
1.5036000013351	-3.3353798405755
1.5080000162125	-3.3100509136948
1.5124000310898	-3.2849615941270
1.5168000459671	-3.2601054452218
1.5211999416351	-3.2354785693708
1.5255999565125	-3.2110767315181
1.5299999713898	-3.1868959378276
1.5343999862671	-3.1629316191753
1.5388000011444	-3.1391827430407
1.5432000160217	-3.1156462382327
1.5476000308990	-3.0923205152007
1.5520000457764	-3.0692039008234
1.5563999414444	-3.0462955214997
1.5607999563217	-3.0235922585464
1.5651999711990	-3.0010982793670
1.5695999860764	-2.9788093638200
1.5740000009537	-2.9567285196479
1.5784000158310	-2.9348552945543
1.5828000307083	-2.9131891446414
1.5872000455856	-2.8917336692257
1.5915999412537	-2.8704872933482
1.5959999561310	-2.8494538105514
1.6003999710083	-2.8286315279586
1.6047999858856	-2.8080243265286
1.6092000007629	-2.7876334560862
1.6136000156403	-2.7674588913093
1.6180000305176	-2.7475038997548
1.6224000453949	-2.7277703892343
1.6267999410629	-2.7082593942656
1.6311999559402	-2.6889725108175
1.6355999708176	-2.6699113256401
1.6399999856949	-2.6510797383636
1.6444000005722	-2.6324745381655
1.6488000154495	-2.6141015510531
1.6532000303268	-2.5959601416346
1.6576000452042	-2.5780531450848
1.6619999408722	-2.5603786179399
1.6663999557495	-2.5429401023361
1.6707999706268	-2.5257382311138
1.6751999855042	-2.5087734242912
1.6796000003815	-2.4920451973903
1.6840000152588	-2.4755562989754
1.6884000301361	-2.4593040351997
1.6928000450134	-2.4432896178707
1.6971999406815	-2.4275138954200
1.7015999555588	-2.4119745643450
1.7059999704361	-2.3966725925735
1.7103999853134	-2.3816075106885
1.7148000001907	-2.3667768071126
1.7192000150681	-2.3521798787457
1.7236000299454	-2.3378154258874
1.7280000448227	-2.3236820875850
1.7323999404907	-2.3097783108017
1.7367999553680	-2.2961000358790
1.7411999702454	-2.2826489620308
1.7455999851227	-2.2694188585452
1.7500000000000	-2.2564096435615
1.7544000148773	-2.2436170212457
1.7588000297546	-2.2310401206702
1.7632000446320	-2.2186734865548
1.7676000595093	-2.2065144924091
1.7719999551773	-2.1945609330632
1.7763999700546	-2.1828083950245
1.7807999849319	-2.1712527221953
1.7851999998093	-2.1598898876727
1.7896000146866	-2.1487183068403
1.7940000295639	-2.1377307022826
1.7984000444412	-2.1269245840819
1.8028000593185	-2.1162961768895
1.8071999549866	-2.1058395755535
1.8115999698639	-2.0955508158729
1.8159999847412	-2.0854269418754
1.8203999996185	-2.0754610367589
1.8248000144958	-2.0656499841677
1.8292000293732	-2.0559871196976
1.8336000442505	-2.0464715468071
1.8380000591278	-2.0370957148042
1.8423999547958	-2.0278547884665
1.8467999696732	-2.0187445350195
1.8511999845505	-2.0097610750862
1.8555999994278	-2.0008990670436
1.8600000143051	-1.9921544654117
1.8644000291824	-1.9835226483633
1.8688000440598	-1.9749987969021
1.8732000589371	-1.9665777672376
1.8775999546051	-1.9582563227874
1.8819999694824	-1.9500309236839
1.8863999843597	-1.9418964143683
1.8907999992371	-1.9338485231432
1.8952000141144	-1.9258835378331
1.8996000289917	-1.9179983889437
1.9040000438690	-1.9101893542999
1.9084000587463	-1.9024527587005
1.9127999544144	-1.8947841163511
1.9171999692917	-1.8871823164702
1.9215999841690	-1.8796435498530
1.9259999990463	-1.8721646597614
1.9304000139236	-1.8647430899487
1.9348000288010	-1.8573768954474
1.9392000436783	-1.8500641246144
1.9436000585556	-1.8428007893265
1.9479999542236	-1.8355867970984
1.9523999691010	-1.8284200506028
1.9567999839783	-1.8212984063877
1.9611999988556	-1.8142215863183
1.9656000137329	-1.8071874877128
1.9700000286102	-1.8001962571490
1.9744000434875	-1.7932461945267
1.9788000583649	-1.7863363610555
1.9831999540329	-1.7794681768342
1.9875999689102	-1.7726398233610
1.9919999837875	-1.7658526173294
1.9963999986649	-1.7591059032735
2.0007998943329	-1.7524002553808
2.0051999092102	-1.7457364502297
2.0095999240875	-1.7391147185012
2.0139999389648	-1.7325363797941
2.0183999538422	-1.7260021600565
2.0227999687195	-1.7195144669927
2.0271999835968	-1.7130728121005
2.0315999984741	-1.7066798204586
2.0360000133514	-1.7003381433498
2.0404000282288	-1.6940463363663
2.0448000431061	-1.6878089064617
2.0492000579834	-1.6816284812190
2.0536000728607	-1.6755038798006
2.0580000877380	-1.6694408109509
2.0624001026154	-1.6634392966690
2.0668001174927	-1.6575022369723
2.0711998939514	-1.6516319942161
2.0755999088287	-1.6458301739944
2.0799999237061	-1.6401011686461
2.0843999385834	-1.6344477572016
2.0887999534607	-1.6288696965435
2.0931999683380	-1.6233720251290
2.0975999832153	-1.6179567162318
2.1019999980927	-1.6126251422550
2.1064000129700	-1.6073820344506
2.1108000278473	-1.6022278800229
2.1152000427246	-1.5971673211502
2.1196000576019	-1.5922015049788
2.1240000724792	-1.5873333132061
2.1284000873566	-1.5825650792288
2.1328001022339	-1.5779003087838
2.1372001171112	-1.5733401616676
2.1415998935699	-1.5688866631506
2.1459999084473	-1.5645443937487
2.1503999233246	-1.5603125970443
2.1547999382019	-1.5561953415283
2.1591999530792	-1.5521932659492
2.1635999679565	-1.5483093131140
2.1679999828339	-1.5445468223756
2.1723999977112	-1.5409042695442
2.1768000125885	-1.5373854610160
2.1812000274658	-1.5339911995438
2.1856000423431	-1.5307237630326
2.1900000572205	-1.5275839663552
2.1944000720978	-1.5245722932127
2.1988000869751	-1.5216927291306
2.2032001018524	-1.5189433290247
2.2076001167297	-1.5163262886798
2.2119998931885	-1.5138427030871
2.2163999080658	-1.5114929786449
2.2207999229431	-1.5092772281270
2.2251999378204	-1.5071973203854
2.2295999526978	-1.5052526163118
2.2339999675751	-1.5034454138474
2.2383999824524	-1.5017740407404
2.2427999973297	-1.5002375042818
2.2472000122070	-1.4988401019477
2.2516000270844	-1.4975794753563
2.2560000419617	-1.4964545339729
2.2604000568390	-1.4954674321225
2.2648000717163	-1.4946164862849
2.2692000865936	-1.4939021458925
2.2736001014709	-1.4933241377213
2.2780001163483	-1.4928823049946
2.2823998928070	-1.4925762920061
2.2867999076843	-1.4924060732011
2.2911999225616	-1.4923706460225
2.2955999374390	-1.4924696797053
2.2999999523163	-1.4927038508283
2.3043999671936	-1.4930714706285
2.3087999820709	-1.4935723945981
2.3131999969482	-1.4942077959582
2.3176000118256	-1.4949744560029
2.3220000267029	-1.4958750925756
2.3264000415802	-1.4969091790744
2.3308000564575	-1.4980741195320
2.3352000713348	-1.4993719866730
2.3396000862122	-1.5008018638508
2.3440001010895	-1.5023628362705
2.3484001159668	-1.5040575806612
2.3527998924255	-1.5058841508268
2.3571999073029	-1.5078434639620
2.3615999221802	-1.5099356876496
2.3659999370575	-1.5121612495963
2.3703999519348	-1.5145225219693
2.3747999668121	-1.5170172154036
2.3791999816895	-1.5196493662910
2.3835999965668	-1.5224182820413
2.3880000114441	-1.5253243475466
2.3924000263214	-1.5283715984944
2.3968000411987	-1.5315584048716
2.4012000560760	-1.5348886840887
2.4056000709534	-1.5383626807225
2.4100000858307	-1.5419840701567
2.4144001007080	-1.5457525046437
2.4188001155853	-1.5496730224315
2.4231998920441	-1.5537469056691
2.4275999069214	-1.5579763370680
2.4319999217987	-1.5623645373438
2.4363999366760	-1.5669160777066
2.4407999515533	-1.5716306771260
2.4451999664307	-1.5765152189896
2.4495999813080	-1.5815723582064
2.4539999961853	-1.5868048988030
2.4584000110626	-1.5922171369756
2.4628000259399	-1.5978130236147
2.4672000408173	-1.6035978061585
2.4716000556946	-1.6095755771291
2.4760000705719	-1.6157500777720
2.4804000854492	-1.6221269199549
2.4848001003265	-1.6287123237070
2.4892001152039	-1.6355091715319
2.4935998916626	-1.6425224653667
2.4979999065399	-1.6497589024556
2.5023999214172	-1.6572246795715
2.5067999362946	-1.6649237515804
2.5111999511719	-1.6728627472717
2.5155999660492	-1.6810468111992
2.5199999809265	-1.6894842676726
2.5243999958038	-1.6981781346524
2.5288000106812	-1.7071356791740
2.5332000255585	-1.7163634378214
2.5376000404358	-1.7258662405363
2.5420000553131	-1.7356520815850
2.5464000701904	-1.7457260665474
2.5508000850677	-1.7560958583995
2.5552000999451	-1.7667665078445
2.5596001148224	-1.7777447913734
2.5639998912811	-1.7890374355862
2.5683999061584	-1.8006498490721
2.5727999210358	-1.8125892219650
2.5771999359131	-1.8248605917630
2.5815999507904	-1.8374711631513
2.5859999656677	-1.8504261748994
2.5903999805450	-1.8637323246179
2.5947999954224	-1.8773952257703
2.5992000102997	-1.8914198057752
2.6036000251770	-1.9058114128218
2.6080000400543	-1.9205769512911
2.6124000549316	-1.9357195225696
2.6168000698090	-1.9512454878662
2.6212000846863	-1.9671594732809
2.6256000995636	-1.9834652193765
2.6300001144409	-2.0001683225917
2.6343998908997	-2.0172716898969
2.6387999057770	-2.0347793413582
2.6431999206543	-2.0526939882168
2.6475999355316	-2.0710203273936
2.6519999504089	-2.0897602464558
2.6563999652863	-2.1089151599319
2.6607999801636	-2.1284887147368
2.6651999950409	-2.1484822450194
2.6696000099182	-2.1688951389415
2.6740000247955	-2.1897315012614
2.6784000396729	-2.2109883269696
2.6828000545502	-2.2326680219948
2.6872000694275	-2.2547696528584
2.6916000843048	-2.2772915290766
2.6960000991821	-2.3002317056599
