#Parameters = {L=149.5; D=10; Gap=1.5; Z0=73}
#"Frequency / GHz"	"S1,1 (L=149.5) [Magnitude]"
#----------------------------------------------
0.10000000149012	-0.40403755263708
0.10440000146627	-0.39035621143532
0.10880000144243	-0.37626298213146
0.11320000141859	-0.36177609489377
0.11760000139475	-0.34691786166099
0.12200000137091	-0.33170947326643
0.12639999389648	-0.31617261904472
0.13079999387264	-0.30032826325811
0.13519999384880	-0.28420116434313
0.13959999382496	-0.26781174952257
0.14399999380112	-0.25118461829054
0.14839999377728	-0.23434236715858
0.15279999375343	-0.21730820660949
0.15719999372959	-0.20010623130963
0.16159999370575	-0.18275988204751
0.16599999368191	-0.16529569107222
0.17039999365807	-0.14773370036369
0.17479999363422	-0.13010089693151
0.17919999361038	-0.11241983213959
0.18359999358654	-0.094717163700935
0.18799999356270	-0.077014728208942
0.19239999353886	-0.059338731873465
0.19679999351501	-0.041713487067965
0.20119999349117	-0.024161994887593
0.20559999346733	-0.0067092431497825
0.20999999344349	0.010621316690177
0.21439999341965	0.027804080782728
0.21879999339581	0.044816473232366
0.22319999337196	0.061634655115718
0.22759999334812	0.078233777967469
0.23199999332428	0.094591053997024
0.23639999330044	0.11068303442355
0.24079999327660	0.12648601466528
0.24519999325275	0.14197858020845
0.24959999322891	0.15713438531531
0.25400000810623	0.17193387699248
0.25839999318123	0.18635348261494
0.26280000805855	0.20037035117529
0.26719999313354	0.21396315454520
0.27160000801086	0.22710927949712
0.27599999308586	0.23978581520930
0.28040000796318	0.25197441227827
0.28479999303818	0.26364988345483
0.28920000791550	0.27479550186921
0.29359999299049	0.28538520602096
0.29800000786781	0.29540218438175
0.30239999294281	0.30482317800545
0.30680000782013	0.31363006370512
0.31119999289513	0.32180121209094
0.31560000777245	0.32931557931571
0.31999999284744	0.33615642310051
0.32440000772476	0.34230273633066
0.32879999279976	0.34773218794542
0.33320000767708	0.35243027494173
0.33759999275208	0.35637556055995
0.34200000762939	0.35954759557056
0.34639999270439	0.36192920788186
0.35080000758171	0.36350304469981
0.35519999265671	0.36424798277528
0.35960000753403	0.36414697756078
0.36399999260902	0.36318147687867
0.36840000748634	0.36133388715348
0.37279999256134	0.35858321816824
0.37720000743866	0.35491552316590
0.38159999251366	0.35031129189879
0.38600000739098	0.34475197896236
0.39039999246597	0.33822190568780
0.39480000734329	0.33070032225914
0.39919999241829	0.32217280187615
0.40360000729561	0.31261899663270
0.40799999237061	0.30202304202653
0.41240000724792	0.29036772403074
0.41679999232292	0.27763453181783
0.42120000720024	0.26380719067237
0.42559999227524	0.24886619753813
0.43000000715256	0.23279543553337
0.43439999222755	0.21557759015907
0.43880000710487	0.19719459935305
0.44319999217987	0.17762780131207
0.44760000705719	0.15686204933745
0.45199999213219	0.13487720592693
0.45640000700951	0.11165587623178
0.46079999208450	0.087180823579184
0.46520000696182	0.061433428148874
0.46959999203682	0.034393806764062
0.47400000691414	0.0060470151791028
0.47839999198914	-0.023628358329678
0.48280000686646	-0.054649177402322
0.48719999194145	-0.087035157625619
0.49160000681877	-0.12080677624217
0.49599999189377	-0.15597959954904
0.50040000677109	-0.19257793938860
0.50480002164841	-0.23061878764107
0.50919997692108	-0.27012340441177
0.51359999179840	-0.31111091122363
0.51800000667572	-0.35360343286452
0.52240002155304	-0.39762138684644
0.52679997682571	-0.44318621071020
0.53119999170303	-0.49032011590006
0.53560000658035	-0.53904351741188
0.54000002145767	-0.58938208552087
0.54439997673035	-0.64135533740063
0.54879999160767	-0.69498918385491
0.55320000648499	-0.75030643415801
0.55760002136230	-0.80733270536203
0.56199997663498	-0.86609092540886
0.56639999151230	-0.92660752542142
0.57080000638962	-0.98890968762775
0.57520002126694	-1.0530214659634
0.57959997653961	-1.1189719780868
0.58399999141693	-1.1867903461532
0.58840000629425	-1.2565013645727
0.59280002117157	-1.3281381261881
0.59719997644424	-1.4017283785817
0.60159999132156	-1.4773037034049
0.60600000619888	-1.5548964312576
0.61040002107620	-1.6345375394423
0.61479997634888	-1.7162623027813
0.61919999122620	-1.8001022809410
0.62360000610352	-1.8860948121139
0.62800002098083	-1.9742758149147
0.63239997625351	-2.0646822385708
0.63679999113083	-2.1573528217266
0.64120000600815	-2.2523261032847
0.64560002088547	-2.3496422375345
0.64999997615814	-2.4493447370552
0.65439999103546	-2.5514757338393
0.65880000591278	-2.6560782873405
0.66320002079010	-2.7631976080651
0.66759997606277	-2.8728836659162
0.67199999094009	-2.9851821353573
0.67640000581741	-3.1001431772265
0.68080002069473	-3.2178180437160
0.68519997596741	-3.3382588615272
0.68959999084473	-3.4615188289117
0.69400000572205	-3.5876544174364
0.69840002059937	-3.7167236124098
0.70279997587204	-3.8487824981685
0.70719999074936	-3.9838927898153
0.71160000562668	-4.1221165886862
0.71600002050400	-4.2635155224041
0.72039997577667	-4.4081536124183
0.72479999065399	-4.5560980807153
0.72920000553131	-4.7074148361378
0.73360002040863	-4.8621718512053
0.73799997568130	-5.0204375568890
0.74239999055862	-5.1822819415318
0.74680000543594	-5.3477763139717
0.75120002031326	-5.5169878829222
0.75559997558594	-5.6899881611283
0.75999999046326	-5.8668458004475
0.76440000534058	-6.0476272511649
0.76880002021790	-6.2323973384500
0.77319997549057	-6.4212176093621
0.77759999036789	-6.6141461325584
0.78200000524521	-6.8112345033658
0.78640002012253	-7.0125272733568
0.79079997539520	-7.2180598395523
0.79519999027252	-7.4278581148781
0.79960000514984	-7.6419312610524
0.80400002002716	-7.8602735847251
0.80839997529984	-8.0828603180090
0.81279999017715	-8.3096371231200
0.81720000505447	-8.5405246875300
0.82160001993179	-8.7754056798930
0.82599997520447	-9.0141200807374
0.83039999008179	-9.2564603299989
0.83480000495911	-9.5021542823592
0.83920001983643	-9.7508650452634
0.84359997510910	-10.002173496676
0.84799998998642	-10.255562243487
0.85240000486374	-10.510410748576
0.85680001974106	-10.765975154861
0.86119997501373	-11.021366455989
0.86559998989105	-11.275548456057
0.87000000476837	-11.527312011031
0.87440001964569	-11.775267011163
0.87879997491837	-12.017834468813
0.88319998979568	-12.253244736958
0.88760000467300	-12.479545469258
0.89200001955032	-12.694618149226
0.89639997482300	-12.896211583203
0.90079998970032	-13.081995686766
0.90520000457764	-13.249620388648
0.90960001945496	-13.396804320512
0.91399997472763	-13.521424486142
0.91839998960495	-13.621620662077
0.92280000448227	-13.695890605123
0.92720001935959	-13.743182099699
0.93159997463226	-13.762949488067
0.93599998950958	-13.755196003307
0.94040000438690	-13.720466915838
0.94480001926422	-13.659818010462
0.94919997453690	-13.574750931819
0.95359998941422	-13.467126815986
0.95800000429153	-13.339067627026
0.96240001916885	-13.192853419578
0.96679997444153	-13.030830985331
0.97119998931885	-12.855329355119
0.97560000419617	-12.668592833160
0.98000001907349	-12.472736829538
0.98439997434616	-12.269711390445
0.98879998922348	-12.061278969925
0.99320000410080	-11.849016235176
0.99760001897812	-11.634305771835
1.0019999742508	-11.418351958704
1.0063999891281	-11.202190862976
1.0108000040054	-10.986702104962
1.0152000188828	-10.772625201656
1.0196000337601	-10.560581855809
1.0240000486374	-10.351080032566
1.0283999443054	-10.144535175268
1.0327999591827	-9.9412814649588
1.0371999740601	-9.7415845458279
1.0415999889374	-9.5456517867219
1.0460000038147	-9.3536348911738
1.0504000186920	-9.1656485941375
1.0548000335693	-8.9817685820424
1.0592000484467	-8.8020438460354
1.0635999441147	-8.6264942602063
1.0679999589920	-8.4551225159516
1.0723999738693	-8.2879133066481
1.0767999887466	-8.1248367705314
1.0812000036240	-7.9658535299263
1.0856000185013	-7.8109115136435
1.0900000333786	-7.6599570206178
1.0944000482559	-7.5129259297898
1.0987999439240	-7.3697499541684
1.1031999588013	-7.2303601988170
1.1075999736786	-7.0946846243693
1.1119999885559	-6.9626470788869
1.1164000034332	-6.8341735063892
1.1208000183105	-6.7091870787189
1.1252000331879	-6.5876117897605
1.1296000480652	-6.4693708621372
1.1339999437332	-6.3543899219449
1.1383999586105	-6.2425944693805
1.1427999734879	-6.1339110938543
1.1471999883652	-6.0282643712721
1.1516000032425	-5.9255854413427
1.1560000181198	-5.8258021410681
1.1604000329971	-5.7288462707186
1.1648000478745	-5.6346494211371
1.1691999435425	-5.5431436991590
1.1735999584198	-5.4542655070301
1.1779999732971	-5.3679492558681
1.1823999881744	-5.2841332172010
1.1868000030518	-5.2027573234421
1.1912000179291	-5.1237588076165
1.1956000328064	-5.0470785335575
1.2000000476837	-4.9726610536590
1.2043999433517	-4.9004467584254
1.2087999582291	-4.8303831134771
1.2131999731064	-4.7624133674869
1.2175999879837	-4.6964840005413
1.2220000028610	-4.6325433623031
1.2264000177383	-4.5705405337007
1.2308000326157	-4.5104238647473
1.2352000474930	-4.4521446684590
1.2395999431610	-4.3956534966501
1.2439999580383	-4.3409008234109
1.2483999729156	-4.2878421804772
1.2527999877930	-4.2364294499912
1.2572000026703	-4.1866177801122
1.2616000175476	-4.1383604256407
1.2660000324249	-4.0916149990247
1.2704000473022	-4.0463368779130
1.2747999429703	-4.0024832351895
1.2791999578476	-3.9600099089000
1.2835999727249	-3.9188775097008
1.2879999876022	-3.8790433917352
1.2924000024796	-3.8404668333552
1.2968000173569	-3.8031067972577
1.3012000322342	-3.7669242363298
1.3056000471115	-3.7318786322467
1.3099999427795	-3.6979334083962
1.3143999576569	-3.6650488207010
1.3187999725342	-3.6331880611904
1.3231999874115	-3.6023122200051
1.3276000022888	-3.5723846644698
1.3320000171661	-3.5433688927042
1.3364000320435	-3.5152305951090
1.3408000469208	-3.4879337036420
1.3451999425888	-3.4614405507121
1.3495999574661	-3.4357196359687
1.3539999723434	-3.4107363809344
1.3583999872208	-3.3864576114962
1.3628000020981	-3.3628491578982
1.3672000169754	-3.3398784691086
1.3716000318527	-3.3175156838972
1.3760000467300	-3.2957264534798
1.3803999423981	-3.2744818949011
1.3847999572754	-3.2537519194275
1.3891999721527	-3.2335048051117
1.3935999870300	-3.2137150517714
1.3980000019073	-3.1943505851649
1.4024000167847	-3.1753853938378
1.4068000316620	-3.1567921962563
1.4112000465393	-3.1385454474141
1.4155999422073	-3.1206187878589
1.4199999570847	-3.1029855120781
1.4243999719620	-3.0856234909203
1.4287999868393	-3.0685089575475
1.4332000017166	-3.0516184814201
1.4376000165939	-3.0349301707453
1.4420000314713	-3.0184234804153
1.4464000463486	-3.0020772351039
1.4507999420166	-2.9858714244653
1.4551999568939	-2.9697888436323
1.4595999717712	-2.9538113926313
1.4639999866486	-2.9379226100894
1.4684000015259	-2.9221047603500
1.4728000164032	-2.9063447265361
1.4772000312805	-2.8906255878893
1.4816000461578	-2.8749369277494
1.4859999418259	-2.8592648493995
1.4903999567032	-2.8435970763435
1.4947999715805	-2.8279245228409
1.4991999864578	-2.8122361732540
1.5036000013351	-2.7965244907837
1.5080000162125	-2.7807791897923
1.5124000310898	-2.7649965441149
1.5168000459671	-2.7491685133351
1.5211999416351	-2.7332904242975
1.5255999565125	-2.7173568912964
1.5299999713898	-2.7013642446647
1.5343999862671	-2.6853119202925
1.5388000011444	-2.6691955229097
1.5432000160217	-2.6530141051104
1.5476000308990	-2.6367685231445
1.5520000457764	-2.6204595308358
1.5563999414444	-2.6040872480276
1.5607999563217	-2.5876528628896
1.5651999711990	-2.5711606365988
1.5695999860764	-2.5546120034365
1.5740000009537	-2.5380125982567
1.5784000158310	-2.5213646503717
1.5828000307083	-2.5046738920483
1.5872000455856	-2.4879462187416
1.5915999412537	-2.4711869027682
1.5959999561310	-2.4544032024160
1.6003999710083	-2.4376016334612
1.6047999858856	-2.4207885575894
1.6092000007629	-2.4039713229670
1.6136000156403	-2.3871609434464
1.6180000305176	-2.3703609941387
1.6224000453949	-2.3535836428631
1.6267999410629	-2.3368357374810
1.6311999559402	-2.3201276346053
1.6355999708176	-2.3034666096327
1.6399999856949	-2.2868629824982
1.6444000005722	-2.2703255960236
1.6488000154495	-2.2538651314074
1.6532000303268	-2.2374899255548
1.6576000452042	-2.2212082410087
1.6619999408722	-2.2050326015124
1.6663999557495	-2.1889686893287
1.6707999706268	-2.1730293844933
1.6751999855042	-2.1572225587289
1.6796000003815	-2.1415562968588
1.6840000152588	-2.1260413439737
1.6884000301361	-2.1106856634666
1.6928000450134	-2.0954972786060
1.6971999406815	-2.0804850247653
1.7015999555588	-2.0656571084351
1.7059999704361	-2.0510236358928
1.7103999853134	-2.0365898023866
1.7148000001907	-2.0223634999472
1.7192000150681	-2.0083528710211
1.7236000299454	-1.9945641700006
1.7280000448227	-1.9810034478003
1.7323999404907	-1.9676773666166
1.7367999553680	-1.9545917423668
1.7411999702454	-1.9417529678145
1.7455999851227	-1.9291654065992
1.7500000000000	-1.9168339484475
1.7544000148773	-1.9047625947764
1.7588000297546	-1.8929568231058
1.7632000446320	-1.8814177394947
1.7676000595093	-1.8701514867794
1.7719999551773	-1.8591592697969
1.7763999700546	-1.8484447921120
1.7807999849319	-1.8380080246697
1.7851999998093	-1.8278525026940
1.7896000146866	-1.8179788677858
1.7940000295639	-1.8083877230281
1.7984000444412	-1.7990800545910
1.8028000593185	-1.7900564905927
1.8071999549866	-1.7813142969532
1.8115999698639	-1.7728558038362
1.8159999847412	-1.7646780388088
1.8203999996185	-1.7567800312907
1.8248000144958	-1.7491603933245
1.8292000293732	-1.7418160409196
1.8336000442505	-1.7347442017729
1.8380000591278	-1.7279440628778
1.8423999547958	-1.7214086779311
1.8467999696732	-1.7151383681287
1.8511999845505	-1.7091259432543
1.8555999994278	-1.7033688756455
1.8600000143051	-1.6978628942404
1.8644000291824	-1.6926013793521
1.8688000440598	-1.6875810135520
1.8732000589371	-1.6827942721584
1.8775999546051	-1.6782374675875
1.8819999694824	-1.6739032777650
1.8863999843597	-1.6697864436859
1.8907999992371	-1.6658793426625
1.8952000141144	-1.6621762249130
1.8996000289917	-1.6586714952023
1.9040000438690	-1.6553552768597
1.9084000587463	-1.6522238476352
1.9127999544144	-1.6492662238494
1.9171999692917	-1.6464783970150
1.9215999841690	-1.6438505577500
1.9259999990463	-1.6413749283723
1.9304000139236	-1.6390462789260
1.9348000288010	-1.6368553755273
1.9392000436783	-1.6347945088548
1.9436000585556	-1.6328552455069
1.9479999542236	-1.6310316289158
1.9523999691010	-1.6293152165600
1.9567999839783	-1.6276971683977
1.9611999988556	-1.6261708763537
1.9656000137329	-1.6247288716386
1.9700000286102	-1.6233636519985
1.9744000434875	-1.6220689304693
1.9788000583649	-1.6208348074014
1.9831999540329	-1.6196569647006
1.9875999689102	-1.6185268576204
1.9919999837875	-1.6174396958600
1.9963999986649	-1.6163879286126
2.0007998943329	-1.6153653281673
2.0051999092102	-1.6143655554033
2.0095999240875	-1.6133846029512
2.0139999389648	-1.6124160002273
2.0183999538422	-1.6114562426335
2.0227999687195	-1.6104979973042
2.0271999835968	-1.6095388026899
2.0315999984741	-1.6085727011011
2.0360000133514	-1.6075997955243
2.0404000282288	-1.6066127157984
2.0448000431061	-1.6056107120859
2.0492000579834	-1.6045914715380
2.0536000728607	-1.6035524139921
2.0580000877380	-1.6024910785579
2.0624001026154	-1.6014072417428
2.0668001174927	-1.6002998290276
2.0711998939514	-1.5991687992772
2.0755999088287	-1.5980139400442
2.0799999237061	-1.5968345787518
2.0843999385834	-1.5956332923814
2.0887999534607	-1.5944105739250
2.0931999683380	-1.5931695902722
2.0975999832153	-1.5919105623410
2.1019999980927	-1.5906382771109
2.1064000129700	-1.5893554357660
2.1108000278473	-1.5880635456128
2.1152000427246	-1.5867714109276
2.1196000576019	-1.5854780201500
2.1240000724792	-1.5841913785170
2.1284000873566	-1.5829172238972
2.1328001022339	-1.5816611086809
2.1372001171112	-1.5804270385124
2.1415998935699	-1.5792255347651
2.1459999084473	-1.5780592058141
2.1503999233246	-1.5769387766510
2.1547999382019	-1.5758701871067
2.1591999530792	-1.5748622456387
2.1635999679565	-1.5739233378392
2.1679999828339	-1.5730614518360
2.1723999977112	-1.5722865326966
2.1768000125885	-1.5716068747820
2.1812000274658	-1.5710335656078
2.1856000423431	-1.5705746816707
2.1900000572205	-1.5702408066745
2.1944000720978	-1.5700430115082
2.1988000869751	-1.5699914157966
2.2032001018524	-1.5700959549925
2.2076001167297	-1.5703678684557
2.2119998931885	-1.5708190743731
2.2163999080658	-1.5714604249854
2.2207999229431	-1.5723020982291
2.2251999378204	-1.5733557961990
2.2295999526978	-1.5746336727100
2.2339999675751	-1.5761481340579
2.2383999824524	-1.5779087770947
2.2427999973297	-1.5799269343891
2.2472000122070	-1.5822160821788
2.2516000270844	-1.5847874887073
2.2560000419617	-1.5876522602932
2.2604000568390	-1.5908217172693
2.2648000717163	-1.5943067960435
2.2692000865936	-1.5981206396191
2.2736001014709	-1.6022735852980
2.2780001163483	-1.6067771707606
2.2823998928070	-1.6116420314816
2.2867999076843	-1.6168795227166
2.2911999225616	-1.6225002811735
2.2955999374390	-1.6285173853906
2.2999999523163	-1.6349372543689
2.3043999671936	-1.6417733071798
2.3087999820709	-1.6490341587290
2.3131999969482	-1.6567308062359
2.3176000118256	-1.6648723511781
2.3220000267029	-1.6734679165763
2.3264000415802	-1.6825280018856
2.3308000564575	-1.6920600533214
2.3352000713348	-1.7020738431643
2.3396000862122	-1.7125769881076
2.3440001010895	-1.7235773180266
2.3484001159668	-1.7350853983994
2.3527998924255	-1.7471045507163
2.3571999073029	-1.7596453006959
2.3615999221802	-1.7727116321592
2.3659999370575	-1.7863124187819
2.3703999519348	-1.8004518349925
2.3747999668121	-1.8151384975626
2.3791999816895	-1.8303727634694
2.3835999965668	-1.8461648089898
2.3880000114441	-1.8625153091300
2.3924000263214	-1.8794285753703
2.3968000411987	-1.8969104944890
2.4012000560760	-1.9149643580879
2.4056000709534	-1.9335894823327
2.4100000858307	-1.9527904007336
2.4144001007080	-1.9725689063215
2.4188001155853	-1.9929268177023
2.4231998920441	-2.0138624978907
2.4275999069214	-2.0353781024014
2.4319999217987	-2.0574731729870
2.4363999366760	-2.0801477220877
2.4407999515533	-2.1033978644485
2.4451999664307	-2.1272240130299
2.4495999813080	-2.1516221824353
2.4539999961853	-2.1765898457051
2.4584000110626	-2.2021237132367
2.4628000259399	-2.2282186462400
2.4672000408173	-2.2548685570762
2.4716000556946	-2.2820717990673
2.4760000705719	-2.3098183905358
2.4804000854492	-2.3381011668957
2.4848001003265	-2.3669162243915
2.4892001152039	-2.3962531549347
2.4935998916626	-2.4261016630785
2.4979999065399	-2.4564532796767
2.5023999214172	-2.4872975878604
2.5067999362946	-2.5186247225690
2.5111999511719	-2.5504198127983
2.5155999660492	-2.5826713856621
2.5199999809265	-2.6153668810877
2.5243999958038	-2.6484912549353
2.5288000106812	-2.6820289337712
2.5332000255585	-2.7159644803159
2.5376000404358	-2.7502804975150
2.5420000553131	-2.7849603040797
2.5464000701904	-2.8199848433438
2.5508000850677	-2.8553357124998
2.5552000999451	-2.8909907466332
2.5596001148224	-2.9269310933350
2.5639998912811	-2.9631349655858
2.5683999061584	-2.9995775149928
2.5727999210358	-3.0362361832253
2.5771999359131	-3.0730877784587
2.5815999507904	-3.1101041709919
2.5859999656677	-3.1472628962045
2.5903999805450	-3.1845342548115
2.5947999954224	-3.2218903009351
2.5992000102997	-3.2593052806079
2.6036000251770	-3.2967457947501
2.6080000400543	-3.3341846007426
2.6124000549316	-3.3715891326268
2.6168000698090	-3.4089291575526
2.6212000846863	-3.4461706944059
2.6256000995636	-3.4832822519420
2.6300001144409	-3.5202286182385
2.6343998908997	-3.5569764744559
2.6387999057770	-3.5934913277352
2.6431999206543	-3.6297373261276
2.6475999355316	-3.6656786392290
2.6519999504089	-3.7012797580854
2.6563999652863	-3.7365051405952
2.6607999801636	-3.7713154292562
2.6651999950409	-3.8056766989397
2.6696000099182	-3.8395520221138
2.6740000247955	-3.8729022249832
2.6784000396729	-3.9056911218700
2.6828000545502	-3.9378842403853
2.6872000694275	-3.9694426221824
2.6916000843048	-4.0003306808029
2.6960000991821	-4.0305140394871
2.7004001140594	-4.0599561555224
2.7047998905182	-4.0886236851511
