#Parameters = {D=8; L=143.5; Z0=73; Gap=1.5}
#"Frequency / GHz"	"S1,1 (L=143.5) [Magnitude]"
#----------------------------------------------
0.10000000149012	0.25557567606155
0.10400000214577	0.23637157989356
0.10800000280142	0.21673887233001
0.11200000345707	0.19671668458891
0.11599999666214	0.17634244779678
0.11999999731779	0.15565506365690
0.12399999797344	0.13469340384421
0.12800000607967	0.11350264074808
0.13199999928474	0.092121028518987
0.13600000739098	0.070595763373159
0.14000000059605	0.048965489264256
0.14399999380112	0.027279946965319
0.14800000190735	0.0055831114993774
0.15199999511242	-0.016080787954164
0.15600000321865	-0.037662982881281
0.15999999642372	-0.059118810507796
0.16400000452995	-0.080400866970764
0.16799999773502	-0.10146244209062
0.17200000584126	-0.12225591584308
0.17599999904633	-0.14273548284779
0.18000000715256	-0.16285402871833
0.18400000035763	-0.18256659192958
0.18799999356270	-0.20182850525719
0.19200000166893	-0.22059314693227
0.19599999487400	-0.23881881434426
0.20000000298023	-0.25646361331859
0.20399999618530	-0.27348558951978
0.20800000429153	-0.28984570033756
0.21199999749660	-0.30550525479828
0.21600000560284	-0.32042919846385
0.21999999880791	-0.33458276825790
0.22400000691414	-0.34793380647075
0.22800000011921	-0.36045177686794
0.23199999332428	-0.37210991358236
0.23600000143051	-0.38288314270163
0.23999999463558	-0.39274963146813
0.24400000274181	-0.40168746824869
0.24799999594688	-0.40968149245396
0.25200000405312	-0.41671733600765
0.25600001215935	-0.42278335163150
0.25999999046326	-0.42787315918310
0.26399999856949	-0.43198110114389
0.26800000667572	-0.43510400054078
0.27200001478195	-0.43724444818994
0.27599999308586	-0.43840854355099
0.28000000119209	-0.43860129852551
0.28400000929832	-0.43783536549304
0.28799998760223	-0.43612321414478
0.29199999570847	-0.43348283828104
0.29600000381470	-0.42993308525647
0.30000001192093	-0.42549680342771
0.30399999022484	-0.42020078188083
0.30799999833107	-0.41407050012345
0.31200000643730	-0.40713981060017
0.31600001454353	-0.39943793632718
0.31999999284744	-0.39100153149917
0.32400000095367	-0.38186915546348
0.32800000905991	-0.37207939439986
0.33199998736382	-0.36167240814704
0.33599999547005	-0.35069224476253
0.34000000357628	-0.33918279087807
0.34400001168251	-0.32718943852477
0.34799998998642	-0.31475779513144
0.35199999809265	-0.30193880001172
0.35600000619888	-0.28878018700552
0.36000001430511	-0.27533021864913
0.36399999260902	-0.26164086789368
0.36800000071526	-0.24776200702011
0.37200000882149	-0.23374512763461
0.37599998712540	-0.21964016243838
0.37999999523163	-0.20550057903103
0.38400000333786	-0.19137676363353
0.38800001144409	-0.17731933586481
0.39199998974800	-0.16337976428885
0.39599999785423	-0.14960986334874
0.40000000596046	-0.13605833530813
0.40400001406670	-0.12277556574459
0.40799999237061	-0.10981134659472
0.41200000047684	-0.097213954036888
0.41600000858307	-0.085031246378090
0.41999998688698	-0.073311486848421
0.42399999499321	-0.062099832092651
0.42800000309944	-0.051443577404239
0.43200001120567	-0.041386047950746
0.43599998950958	-0.031973931632037
0.43999999761581	-0.023247022407473
0.44400000572205	-0.015250336565737
0.44800001382828	-0.0080247845901198
0.45199999213219	-0.0016105026011009
0.45600000023842	0.0039532616375012
0.46000000834465	0.0086257387349560
0.46399998664856	0.012370846767371
0.46799999475479	0.015150230187670
0.47200000286102	0.016926463539047
0.47600001096725	0.017668298515750
0.47999998927116	0.017336583952367
0.48399999737740	0.015899537180641
0.48800000548363	0.013325062865237
0.49200001358986	0.0095789734686030
0.49599999189377	0.0046305347113046
0.50000000000000	-0.0015527227092026
0.50400000810623	-0.0089992878884093
0.50800001621246	-0.017738666403568
0.51200002431870	-0.027800700116432
0.51599997282028	-0.039215075054076
0.51999998092651	-0.052007622906824
0.52399998903275	-0.066206393805432
0.52799999713898	-0.081839205201659
0.53200000524521	-0.098932726205873
0.53600001335144	-0.11751260226957
0.54000002145767	-0.13760423734033
0.54400002956390	-0.15923439586291
0.54799997806549	-0.18242792837837
0.55199998617172	-0.20720925193344
0.55599999427795	-0.23360361214317
0.56000000238419	-0.26163631952039
0.56400001049042	-0.29132995131302
0.56800001859665	-0.32271143198733
0.57200002670288	-0.35580417039784
0.57599997520447	-0.39063277730187
0.57999998331070	-0.42722044509275
0.58399999141693	-0.46559208110285
0.58799999952316	-0.50577446797382
0.59200000762939	-0.54778895561956
0.59600001573563	-0.59166211645035
0.60000002384186	-0.63741959782208
0.60399997234344	-0.68508529291816
0.60799998044968	-0.73468599472283
0.61199998855591	-0.78624703898983
0.61599999666214	-0.83979625928399
0.62000000476837	-0.89535784427801
0.62400001287460	-0.95296098769447
0.62800002098083	-1.0126335728149
0.63200002908707	-1.0744035195357
0.63599997758865	-1.1382987809817
0.63999998569489	-1.2043517707132
0.64399999380112	-1.2725900330205
0.64800000190735	-1.3430453661032
0.65200001001358	-1.4157528012629
0.65600001811981	-1.4907405938654
0.66000002622604	-1.5680451106553
0.66399997472763	-1.6477008232229
0.66799998283386	-1.7297439573004
0.67199999094009	-1.8142103150018
0.67599999904633	-1.9011396403058
0.68000000715256	-1.9905715807685
0.68400001525879	-2.0825453999241
0.68800002336502	-2.1771042194507
0.69199997186661	-2.2742930885511
0.69599997997284	-2.3741545976017
0.69999998807907	-2.4767381440584
0.70399999618530	-2.5820917102475
0.70800000429153	-2.6902681278959
0.71200001239777	-2.8013163102835
0.71600002050400	-2.9152950703997
0.72000002861023	-3.0322590528161
0.72399997711182	-3.1522678818330
0.72799998521805	-3.2753848186317
0.73199999332428	-3.4016735266121
0.73600000143051	-3.5312002165033
0.74000000953674	-3.6640369894333
0.74400001764297	-3.8002564700360
0.74800002574921	-3.9399351856793
0.75199997425079	-4.0831523901029
0.75599998235703	-4.2299915525673
0.75999999046326	-4.3805402265583
0.76399999856949	-4.5348895124750
0.76800000667572	-4.6931352352661
0.77200001478195	-4.8553751951828
0.77600002288818	-5.0217162268538
0.77999997138977	-5.1922643959468
0.78399997949600	-5.3671346355099
0.78799998760223	-5.5464469008272
0.79199999570847	-5.7303261859362
0.79600000381470	-5.9189008251208
0.80000001192093	-6.1123071342457
0.80400002002716	-6.3106883214781
0.80800002813339	-6.5141917906557
0.81199997663498	-6.7229708923889
0.81599998474121	-6.9371874719539
0.81999999284744	-7.1570071596270
0.82400000095367	-7.3826011099409
0.82800000905991	-7.6141488966836
0.83200001716614	-7.8518334298671
0.83600002527237	-8.0958405126985
0.83999997377396	-8.3463613709577
0.84399998188019	-8.6035879493778
0.84799998998642	-8.8677118603111
0.85199999809265	-9.1389224030951
0.85600000619888	-9.4173999448778
0.86000001430511	-9.7033187012292
0.86400002241135	-9.9968293622787
0.86799997091293	-10.298064049980
0.87199997901917	-10.607116373452
0.87599998712540	-10.924034637095
0.87999999523163	-11.248804089242
0.88400000333786	-11.581326806427
0.88800001144409	-11.921395995192
0.89200001955032	-12.268668651897
0.89600002765656	-12.622619044459
0.89999997615814	-12.982498171430
0.90399998426437	-13.347271265725
0.90799999237061	-13.715555271764
0.91200000047684	-14.085537689543
0.91600000858307	-14.454893506650
0.92000001668930	-14.820694356082
0.92400002479553	-15.179334790851
0.92799997329712	-15.526471542145
0.93199998140335	-15.857003628041
0.93599998950958	-16.165134488260
0.93999999761581	-16.444532967629
0.94400000572205	-16.688600695672
0.94800001382828	-16.890901311016
0.95200002193451	-17.045660781481
0.95599997043610	-17.148339567324
0.95999997854233	-17.196125173756
0.96399998664856	-17.188270187140
0.96799999475479	-17.126189979531
0.97200000286102	-17.013280127481
0.97600001096725	-16.854522659128
0.98000001907349	-16.655948512412
0.98400002717972	-16.424089671389
0.98799997568130	-16.165485029939
0.99199998378754	-15.886313297939
0.99599999189377	-15.592148359924
1.0000000000000	-15.287843657534
1.0039999485016	-14.977495870294
1.0080000162125	-14.664474994732
1.0119999647141	-14.351498010029
1.0160000324249	-14.040708174235
1.0199999809265	-13.733760995686
1.0240000486374	-13.431911569648
1.0279999971390	-13.136084558518
1.0319999456406	-12.846943703012
1.0360000133514	-12.564938534128
1.0399999618530	-12.290356209429
1.0440000295639	-12.023355197181
1.0479999780655	-11.763990273173
1.0520000457764	-11.512244714854
1.0559999942780	-11.268041931734
1.0599999427795	-11.031264831781
1.0640000104904	-10.801763157939
1.0679999589920	-10.579363667585
1.0720000267029	-10.363879433519
1.0759999752045	-10.155115104696
1.0800000429153	-9.9528682960653
1.0839999914169	-9.7569335671582
1.0880000591278	-9.5671082820156
1.0920000076294	-9.3831898738572
1.0959999561310	-9.2049815682346
1.1000000238419	-9.0322868542256
1.1039999723434	-8.8649181298101
1.1080000400543	-8.7026924250812
1.1119999885559	-8.5454321116184
1.1160000562668	-8.3929650453465
1.1200000047684	-8.2451275032180
1.1239999532700	-8.1017586578793
1.1280000209808	-7.9627069504410
1.1319999694824	-7.8278219911603
1.1360000371933	-7.6969646689058
1.1399999856949	-7.5699966265037
1.1440000534058	-7.4467877750025
1.1480000019073	-7.3272117803559
1.1519999504089	-7.2111467504219
1.1560000181198	-7.0984756109720
1.1599999666214	-6.9890867240127
1.1640000343323	-6.8828720604353
1.1679999828339	-6.7797278191737
1.1720000505447	-6.6795529661455
1.1759999990463	-6.5822515213817
1.1799999475479	-6.4877294871261
1.1840000152588	-6.3958972719787
1.1879999637604	-6.3066681725029
1.1920000314713	-6.2199595532749
1.1959999799728	-6.1356880529238
1.2000000476837	-6.0537781672500
1.2039999961853	-5.9741518638913
1.2079999446869	-5.8967372662664
1.2120000123978	-5.8214626315353
1.2159999608994	-5.7482604837814
1.2200000286102	-5.6770623367714
1.2239999771118	-5.6078052598897
1.2280000448227	-5.5404270119073
1.2319999933243	-5.4748646748511
1.2359999418259	-5.4110615976550
1.2400000095367	-5.3489595626266
1.2439999580383	-5.2885033510115
1.2480000257492	-5.2296390671687
1.2519999742508	-5.1723137476636
1.2560000419617	-5.1164760543377
1.2599999904633	-5.0620760221247
1.2640000581741	-5.0090672685658
1.2680000066757	-4.9574011422110
1.2719999551773	-4.9070329854470
1.2760000228882	-4.8579181502081
1.2799999713898	-4.8100129854629
1.2840000391006	-4.7632755304550
1.2879999876022	-4.7176670876121
1.2920000553131	-4.6731436007136
1.2960000038147	-4.6296700092307
1.2999999523163	-4.5872075287990
1.3040000200272	-4.5457188710992
1.3079999685287	-4.5051705401146
1.3120000362396	-4.4655247276403
1.3159999847412	-4.4267512660834
1.3200000524521	-4.3888150047489
1.3240000009537	-4.3516862059542
1.3279999494553	-4.3153321589343
1.3320000171661	-4.2797263142155
1.3359999656677	-4.2448376170404
1.3400000333786	-4.2106362653876
1.3439999818802	-4.1770999653387
1.3480000495911	-4.1441991916116
1.3519999980927	-4.1119092466423
1.3559999465942	-4.0802060393375
1.3600000143051	-4.0490662482046
1.3639999628067	-4.0184666514037
1.3680000305176	-3.9883860079520
1.3719999790192	-3.9588015629594
1.3760000467300	-3.9296960396231
1.3799999952316	-3.9010465704045
1.3839999437332	-3.8728376364393
1.3880000114441	-3.8450489875368
1.3919999599457	-3.8176643288695
1.3960000276566	-3.7906691239817
1.3999999761581	-3.7640443042037
1.4040000438690	-3.7377772450231
1.4079999923706	-3.7118537052960
1.4119999408722	-3.6862602146060
1.4160000085831	-3.6609823577453
1.4199999570847	-3.6360112506226
1.4240000247955	-3.6113330534291
1.4279999732971	-3.5869379063714
1.4320000410080	-3.5628145050325
1.4359999895096	-3.5389552546511
1.4400000572205	-3.5153508376970
1.4440000057220	-3.4919930303881
1.4479999542236	-3.4688726191204
1.4520000219345	-3.4459838821529
1.4559999704361	-3.4233201802719
1.4600000381470	-3.4008756481019
1.4639999866486	-3.3786441514770
1.4680000543594	-3.3566202766221
1.4720000028610	-3.3348001960432
1.4759999513626	-3.3131787184089
1.4800000190735	-3.2917534591349
1.4839999675751	-3.2705212296653
1.4880000352859	-3.2494771907141
1.4919999837875	-3.2286203139960
1.4960000514984	-3.2079479677769
1.5000000000000	-3.1874581380298
1.5039999485016	-3.1671494832503
1.5080000162125	-3.1470205203037
1.5119999647141	-3.1270696884998
1.5160000324249	-3.1072976537066
1.5199999809265	-3.0877027970522
1.5240000486374	-3.0682854357859
1.5279999971390	-3.0490448286524
1.5319999456406	-3.0299815439944
1.5360000133514	-3.0110943595285
1.5399999618530	-2.9923863629439
1.5440000295639	-2.9738551346626
1.5479999780655	-2.9555035911277
1.5520000457764	-2.9373311955409
1.5559999942780	-2.9193391402813
1.5599999427795	-2.9015286687104
1.5640000104904	-2.8838990270754
1.5679999589920	-2.8664532584393
1.5720000267029	-2.8491903060715
1.5759999752045	-2.8321128514781
1.5800000429153	-2.8152213232806
1.5839999914169	-2.7985160712554
1.5880000591278	-2.7819995883346
1.5920000076294	-2.7656695351809
1.5959999561310	-2.7495306706246
1.6000000238419	-2.7335820554649
1.6039999723434	-2.7178229894732
1.6080000400543	-2.7022569364489
1.6119999885559	-2.6868813480897
1.6160000562668	-2.6716989428487
1.6200000047684	-2.6567096123153
1.6239999532700	-2.6419137278092
1.6280000209808	-2.6273098691442
1.6319999694824	-2.6129015302862
1.6360000371933	-2.5986849341329
1.6399999856949	-2.5846619761086
1.6440000534058	-2.5708326525360
1.6480000019073	-2.5571949441386
1.6519999504089	-2.5437485122953
1.6560000181198	-2.5304946079190
1.6599999666214	-2.5174327984694
1.6640000343323	-2.5045580878563
1.6679999828339	-2.4918719827042
1.6720000505447	-2.4793747567443
1.6759999990463	-2.4670635127284
1.6799999475479	-2.4549361056918
1.6840000152588	-2.4429927171191
1.6879999637604	-2.4312297434489
1.6920000314713	-2.4196475213213
1.6959999799728	-2.4082429197477
1.7000000476837	-2.3970145631078
1.7039999961853	-2.3859593853903
1.7079999446869	-2.3750765029624
1.7120000123978	-2.3643620128610
1.7159999608994	-2.3538145474028
1.7200000286102	-2.3434319539081
1.7239999771118	-2.3332109402847
1.7280000448227	-2.3231489023099
1.7319999933243	-2.3132430020356
1.7359999418259	-2.3034923525351
1.7400000095367	-2.2938902328915
1.7439999580383	-2.2844368991515
1.7480000257492	-2.2751289629198
1.7519999742508	-2.2659623984051
1.7560000419617	-2.2569347566778
1.7599999904633	-2.2480431257572
1.7640000581741	-2.2392840317123
1.7680000066757	-2.2306556111685
1.7719999551773	-2.2221519990310
1.7760000228882	-2.2137730667794
1.7799999713898	-2.2055125707177
1.7840000391006	-2.1973715910050
1.7879999876022	-2.1893429113479
1.7920000553131	-2.1814262416555
1.7960000038147	-2.1736170233159
1.7999999523163	-2.1659125614032
1.8040000200272	-2.1583110915161
1.8079999685287	-2.1508082248244
1.8120000362396	-2.1434016947548
1.8159999847412	-2.1360881551158
1.8200000524521	-2.1288649571101
1.8240000009537	-2.1217303506783
1.8279999494553	-2.1146813335018
1.8320000171661	-2.1077138192877
1.8359999656677	-2.1008280251844
1.8400000333786	-2.0940186596377
1.8439999818802	-2.0872859793900
1.8480000495911	-2.0806280656656
1.8519999980927	-2.0740404121339
1.8559999465942	-2.0675226913406
1.8600000143051	-2.0610716911355
1.8639999628067	-2.0546879323258
1.8680000305176	-2.0483667778174
1.8719999790192	-2.0421092742588
1.8760000467300	-2.0359126706240
1.8799999952316	-2.0297772439929
1.8839999437332	-2.0236992431425
1.8880000114441	-2.0176788008127
1.8919999599457	-2.0117152118801
1.8960000276566	-2.0058074758641
1.8999999761581	-1.9999547636995
1.9040000438690	-1.9941568093796
1.9079999923706	-1.9884113434127
1.9119999408722	-1.9827213021507
1.9160000085831	-1.9770832306815
1.9199999570847	-1.9714980052627
1.9240000247955	-1.9659654725347
1.9279999732971	-1.9604864660905
1.9320000410080	-1.9550614762612
1.9359999895096	-1.9496875242163
1.9400000572205	-1.9443689950057
1.9440000057220	-1.9391030154352
1.9479999542236	-1.9338922854761
1.9520000219345	-1.9287368557476
1.9559999704361	-1.9236372183913
1.9600000381470	-1.9185942498589
1.9639999866486	-1.9136085801276
1.9680000543594	-1.9086809288333
1.9720000028610	-1.9038124258138
1.9759999513626	-1.8990038652346
1.9800000190735	-1.8942583830877
1.9839999675751	-1.8895738008316
1.9880000352859	-1.8849538298005
1.9919999837875	-1.8803989742883
1.9960000514984	-1.8759102939444
2.0000000000000	-1.8714888058895
2.0039999485016	-1.8671362587120
2.0079998970032	-1.8628550236625
2.0120000839233	-1.8586450223108
2.0160000324249	-1.8545084327658
2.0199999809265	-1.8504448884516
2.0239999294281	-1.8464596673691
2.0280001163483	-1.8425508153306
2.0320000648499	-1.8387207464764
2.0360000133514	-1.8349711639944
2.0399999618530	-1.8313033819785
2.0439999103546	-1.8277193805516
2.0480000972748	-1.8242208476866
2.0520000457764	-1.8208069416719
2.0559999942780	-1.8174808560631
2.0599999427795	-1.8142433638827
2.0639998912811	-1.8110970260129
2.0680000782013	-1.8080419549600
2.0720000267029	-1.8050782717694
2.0759999752045	-1.8022104492978
2.0799999237061	-1.7994372967001
2.0840001106262	-1.7967606434584
2.0880000591278	-1.7941807870481
2.0920000076294	-1.7916996243341
2.0959999561310	-1.7893191315202
2.0999999046326	-1.7870386633493
2.1040000915527	-1.7848605704489
2.1080000400543	-1.7827845794164
2.1119999885559	-1.7808125435063
2.1159999370575	-1.7789442200424
2.1199998855591	-1.7771811116094
2.1240000724792	-1.7755261417321
2.1280000209808	-1.7739761776442
2.1319999694824	-1.7725348153992
2.1359999179840	-1.7712014753508
2.1400001049042	-1.7699767454697
2.1440000534058	-1.7688623312898
2.1480000019073	-1.7678581866978
2.1519999504089	-1.7669652350537
2.1559998989105	-1.7661829061896
2.1600000858307	-1.7655131615928
2.1640000343323	-1.7649561007514
2.1679999828339	-1.7645122764998
2.1719999313354	-1.7641825737575
2.1760001182556	-1.7639673601336
2.1800000667572	-1.7638670246414
2.1840000152588	-1.7638814678344
2.1879999637604	-1.7640140521772
2.1919999122620	-1.7642616348582
2.1960000991821	-1.7646276319849
2.2000000476837	-1.7651113487703
2.2039999961853	-1.7657144351673
2.2079999446869	-1.7664367266380
2.2119998931885	-1.7672799348109
2.2160000801086	-1.7682445185832
2.2200000286102	-1.7693309508561
2.2239999771118	-1.7705409660936
2.2279999256134	-1.7718756423886
2.2320001125336	-1.7733348298627
2.2360000610352	-1.7749202986526
2.2400000095367	-1.7766343130008
2.2439999580383	-1.7784786850012
2.2479999065399	-1.7804539266666
2.2520000934601	-1.7825591722556
2.2560000419617	-1.7848005056646
2.2599999904633	-1.7871778522515
2.2639999389648	-1.7896916539093
2.2679998874664	-1.7923462490758
2.2720000743866	-1.7951426250379
2.2760000228882	-1.7980850183054
2.2799999713898	-1.8011721656130
2.2839999198914	-1.8044087369246
2.2880001068115	-1.8077985749587
2.2920000553131	-1.8113421491933
2.2960000038147	-1.8150448549626
2.2999999523163	-1.8189074266730
2.3039999008179	-1.8229351178475
2.3080000877380	-1.8271295309991
2.3120000362396	-1.8314965516990
2.3159999847412	-1.8360395713463
2.3199999332428	-1.8407616823921
2.3239998817444	-1.8456657935330
2.3280000686646	-1.8507587862016
2.3320000171661	-1.8560432064302
2.3359999656677	-1.8615253882830
2.3399999141693	-1.8672088098245
2.3440001010895	-1.8730984099262
2.3480000495911	-1.8792000020536
2.3519999980927	-1.8855186939570
2.3559999465942	-1.8920603069290
2.3599998950958	-1.8988289784095
2.3640000820160	-1.9058323513312
2.3680000305176	-1.9130761249290
2.3719999790192	-1.9205648823370
2.3759999275208	-1.9283071686389
2.3800001144409	-1.9363070020388
2.3840000629425	-1.9445724701569
2.3880000114441	-1.9531103925832
2.3919999599457	-1.9619271000413
2.3959999084473	-1.9710290616946
2.4000000953674	-1.9804247751108
2.4040000438690	-1.9901203588833
2.4079999923706	-2.0001231813378
2.4119999408722	-2.0104410098349
2.4159998893738	-2.0210822377821
2.4200000762939	-2.0320529365743
2.4240000247955	-2.0433633592255
2.4279999732971	-2.0550176840208
2.4319999217987	-2.0670285480464
2.4360001087189	-2.0793987685871
2.4400000572205	-2.0921405843425
2.4440000057220	-2.1052607474128
2.4479999542236	-2.1187672161086
2.4519999027252	-2.1326687017513
2.4560000896454	-2.1469737579258
